Time (s),End Effector X (mm),End Effector Y (mm),Target X (mm),Target Y (mm),Force X (N),Force Y (N)
0.000,-43.671,97.546,-62.463,76.085
0.005,-45.097,97.183,-62.463,76.085
0.010,-46.558,96.800,-62.463,76.085
0.015,-48.026,96.395,-62.463,76.085
0.020,-49.536,96.032,-62.463,76.085
0.025,-51.046,95.641,-62.463,76.085
0.030,-52.535,95.257,-62.463,76.085
0.035,-54.080,94.873,-62.463,76.085
0.040,-55.562,94.448,-62.463,76.085
0.045,-56.995,94.009,-62.463,76.085
0.050,-58.512,93.563,-62.463,76.085
0.055,-59.902,93.125,108.393,-52.597
0.060,-61.328,92.673,108.393,-52.597
0.065,-62.641,92.235,108.393,-52.597
0.070,-63.961,91.783,108.393,-52.597
0.075,-65.358,91.304,108.393,-52.597
0.080,-66.643,90.769,108.393,-52.597
0.085,-67.963,90.290,108.393,-52.597
0.090,-69.269,89.804,108.393,-52.597
0.095,-70.624,89.332,108.393,-52.597
0.100,-71.867,88.895,108.393,-52.597
0.105,-73.130,88.451,108.393,-52.597
0.110,-74.436,87.979,108.393,-52.597
0.115,-75.721,87.542,108.393,-52.597
0.120,-76.936,87.078,108.393,-52.597
0.125,-78.143,86.642,108.393,-52.597
0.130,-79.252,86.248,108.393,-52.597
0.135,-80.383,85.805,108.393,-52.597
0.140,-81.555,85.348,108.393,-52.597
0.145,-82.587,84.926,108.393,-52.597
0.150,-83.598,84.484,108.393,-52.597
0.155,-84.636,84.084,108.393,-52.597
0.160,-85.563,83.662,108.393,-52.597
0.165,-86.511,83.304,108.393,-52.597
0.170,-87.444,82.946,108.393,-52.597
0.175,-88.279,82.546,108.393,-52.597
0.180,-89.122,82.209,108.393,-52.597
0.185,-89.901,81.831,108.393,-52.597
0.190,-90.764,81.514,108.393,-52.597
0.195,-91.473,81.157,108.393,-52.597
0.200,-92.238,80.841,108.393,-52.597
0.205,-92.856,80.505,108.393,-52.597
0.210,-93.593,80.252,108.393,-52.597
0.215,-94.203,79.958,108.393,-52.597
0.220,-94.722,79.698,108.393,-52.597
0.225,-95.333,79.446,108.393,-52.597
0.230,-95.866,79.173,108.393,-52.597
0.235,-96.357,78.872,108.393,-52.597
0.240,-96.814,78.634,108.393,-52.597
0.245,-97.291,78.361,108.393,-52.597
0.250,-97.606,78.061,108.393,-52.597
0.255,-97.950,77.809,108.393,-52.597
0.260,-98.273,77.565,108.393,-52.597
0.265,-98.637,77.313,108.393,-52.597
0.270,-98.911,77.076,108.393,-52.597
0.275,-99.170,76.817,108.393,-52.597
0.280,-99.310,76.560,108.393,-52.597
0.285,-99.478,76.323,108.393,-52.597
0.290,-99.646,76.065,108.393,-52.597
0.295,-99.744,75.807,108.393,-52.597
0.300,-99.828,75.612,108.393,-52.597
0.305,-99.870,75.390,108.393,-52.597
0.310,-99.911,75.195,108.393,-52.597
0.315,-99.967,74.944,108.393,-52.597
0.320,-99.995,74.805,108.393,-52.597
0.325,-100.037,74.610,108.393,-52.597
0.330,-100.064,74.485,108.393,-52.597
0.335,-100.092,74.332,108.393,-52.597
0.340,-100.120,74.221,108.393,-52.597
0.345,-100.148,74.096,108.393,-52.597
0.350,-100.162,74.026,108.393,-52.597
0.355,-100.176,73.943,108.393,-52.597
0.360,-100.190,73.859,108.393,-52.597
0.365,-100.204,73.817,108.393,-52.597
0.370,-100.217,73.748,108.393,-52.597
0.375,-100.231,73.706,108.393,-52.597
0.380,-100.231,73.664,108.393,-52.597
0.385,-100.245,73.581,108.393,-52.597
0.390,-100.259,73.553,108.393,-52.597
0.395,-100.259,73.525,108.393,-52.597
0.400,-100.273,73.483,108.393,-52.597
0.405,-100.287,73.442,108.393,-52.597
0.410,-100.287,73.442,108.393,-52.597
0.415,-100.287,73.400,108.393,-52.597
0.420,-100.301,73.358,108.393,-52.597
0.425,-100.301,73.358,108.393,-52.597
0.430,-100.301,73.358,108.393,-52.597
0.435,-100.301,73.358,108.393,-52.597
0.440,-100.301,73.358,108.393,-52.597
0.445,-100.301,73.358,108.393,-52.597
0.450,-100.301,73.358,108.393,-52.597
0.455,-100.301,73.358,108.393,-52.597
0.460,-100.301,73.358,108.393,-52.597
0.465,-100.301,73.358,108.393,-52.597
0.470,-100.301,73.358,108.393,-52.597
0.475,-100.301,73.358,108.393,-52.597
0.480,-100.301,73.358,108.393,-52.597
0.485,-100.301,73.358,108.393,-52.597
0.490,-100.301,73.358,108.393,-52.597
0.495,-100.301,73.358,108.393,-52.597
0.500,-100.301,73.358,108.393,-52.597
0.505,-100.301,73.358,108.393,-52.597
0.510,-100.301,73.358,108.393,-52.597
0.515,-100.301,73.358,108.393,-52.597
0.520,-100.301,73.358,108.393,-52.597
0.525,-100.301,73.358,108.393,-52.597
0.530,-100.231,73.296,108.393,-52.597
0.535,-100.069,73.268,108.393,-52.597
0.540,-99.886,73.200,108.393,-52.597
0.545,-99.633,73.110,108.393,-52.597
0.550,-99.289,72.979,108.393,-52.597
0.555,-98.994,72.862,108.393,-52.597
0.560,-98.670,72.773,108.393,-52.597
0.565,-98.438,72.670,108.393,-52.597
0.570,-98.143,72.573,108.393,-52.597
0.575,-97.848,72.463,108.393,-52.597
0.580,-97.595,72.373,108.393,-52.597
0.585,-97.363,72.291,108.393,-52.597
0.590,-97.208,72.257,108.393,-52.597
0.595,-97.068,72.195,108.393,-52.597
0.600,-96.864,72.126,108.393,-52.597
0.605,-96.744,72.064,108.393,-52.597
0.610,-96.541,72.016,108.393,-52.597
0.615,-96.400,71.954,108.393,-52.597
0.620,-96.245,71.920,108.393,-52.597
0.625,-96.105,71.858,108.393,-52.597
0.630,-95.950,71.810,108.393,-52.597
0.635,-95.810,71.747,108.393,-52.597
0.640,-95.669,71.685,108.393,-52.597
0.645,-95.514,71.658,108.393,-52.597
0.650,-95.374,71.596,108.393,-52.597
0.655,-95.219,71.562,108.393,-52.597
0.660,-95.079,71.500,108.393,-52.597
0.665,-94.987,71.458,108.393,-52.597
0.670,-94.896,71.452,108.393,-52.597
0.675,-94.783,71.411,108.393,-52.597
0.680,-94.692,71.369,108.393,-52.597
0.685,-94.601,71.328,108.393,-52.597
0.690,-94.538,71.321,108.393,-52.597
0.695,-94.488,71.300,108.393,-52.597
0.700,-94.397,71.259,108.393,-52.597
0.705,-94.306,71.232,108.393,-52.597
0.710,-94.277,71.232,108.393,-52.597
0.715,-94.214,71.225,108.393,-52.597
0.720,-94.102,71.184,108.393,-52.597
0.725,-94.052,71.163,108.393,-52.597
0.730,-94.010,71.142,108.393,-52.597
0.735,-93.961,71.122,108.393,-52.597
0.740,-93.856,71.094,108.393,-52.597
0.745,-93.807,71.074,108.393,-52.597
0.750,-93.778,71.053,108.393,-52.597
0.755,-93.715,71.053,108.393,-52.597
0.760,-93.666,71.033,108.393,-52.597
0.765,-93.603,71.012,108.393,-52.597
0.770,-93.603,71.012,108.393,-52.597
0.775,-93.575,70.991,108.393,-52.597
0.780,-93.532,70.984,108.393,-52.597
0.785,-93.532,70.984,108.393,-52.597
0.790,-93.483,70.964,108.393,-52.597
0.795,-93.483,70.964,108.393,-52.597
0.800,-93.420,70.943,108.393,-52.597
0.805,-93.420,70.943,108.393,-52.597
0.810,-93.420,70.943,108.393,-52.597
0.815,-93.420,70.943,108.393,-52.597
0.820,-93.420,70.943,108.393,-52.597
0.825,-93.420,70.943,108.393,-52.597
0.830,-93.371,70.922,108.393,-52.597
0.835,-93.371,70.922,108.393,-52.597
0.840,-93.371,70.922,108.393,-52.597
0.845,-93.371,70.922,108.393,-52.597
0.850,-93.371,70.922,108.393,-52.597
0.855,-93.329,70.902,108.393,-52.597
0.860,-93.329,70.902,108.393,-52.597
0.865,-93.329,70.902,108.393,-52.597
0.870,-93.329,70.902,108.393,-52.597
0.875,-93.329,70.902,108.393,-52.597
0.880,-93.329,70.902,108.393,-52.597
0.885,-93.329,70.902,108.393,-52.597
0.890,-93.329,70.902,108.393,-52.597
0.895,-93.329,70.902,108.393,-52.597
0.900,-93.329,70.902,108.393,-52.597
0.905,-93.329,70.902,108.393,-52.597
0.910,-93.329,70.902,108.393,-52.597
0.915,-93.329,70.902,108.393,-52.597
0.920,-93.329,70.902,108.393,-52.597
0.925,-93.329,70.902,108.393,-52.597
0.930,-93.329,70.902,108.393,-52.597
0.935,-93.329,70.902,108.393,-52.597
0.940,-93.329,70.902,108.393,-52.597
0.945,-93.329,70.902,108.393,-52.597
0.950,-93.329,70.902,108.393,-52.597
0.955,-93.329,70.902,108.393,-52.597
0.960,-93.329,70.902,108.393,-52.597
0.965,-93.329,70.902,108.393,-52.597
0.970,-93.329,70.902,108.393,-52.597
0.975,-93.329,70.902,108.393,-52.597
0.980,-93.329,70.902,108.393,-52.597
0.985,-93.329,70.902,108.393,-52.597
0.990,-93.329,70.902,108.393,-52.597
0.995,-93.279,70.881,108.393,-52.597
1.000,-93.279,70.881,108.393,-52.597
1.005,-93.279,70.881,108.393,-52.597
1.010,-93.279,70.881,108.393,-52.597
1.015,-93.279,70.881,108.393,-52.597
1.020,-93.279,70.881,108.393,-52.597
1.025,-93.279,70.881,108.393,-52.597
1.030,-93.279,70.881,108.393,-52.597
1.035,-93.279,70.881,108.393,-52.597
1.040,-93.279,70.881,108.393,-52.597
1.045,-93.279,70.881,108.393,-52.597
1.050,-93.237,70.874,108.393,-52.597
1.055,-93.237,70.874,108.393,-52.597
1.060,-93.237,70.874,108.393,-52.597
1.065,-93.237,70.874,108.393,-52.597
1.070,-93.188,70.867,108.393,-52.597
1.075,-93.188,70.867,108.393,-52.597
1.080,-93.188,70.867,108.393,-52.597
1.085,-93.188,70.867,108.393,-52.597
1.090,-93.188,70.867,108.393,-52.597
1.095,-93.125,70.868,108.393,-52.597
1.100,-93.125,70.868,108.393,-52.597
1.105,-93.097,70.847,108.393,-52.597
1.110,-93.097,70.847,108.393,-52.597
1.115,-93.034,70.826,108.393,-52.597
1.120,-93.034,70.826,108.393,-52.597
1.125,-92.984,70.806,108.393,-52.597
1.130,-92.984,70.806,108.393,-52.597
1.135,-92.921,70.785,108.393,-52.597
1.140,-92.921,70.785,108.393,-52.597
1.145,-92.893,70.764,108.393,-52.597
1.150,-92.893,70.764,108.393,-52.597
1.155,-92.851,70.744,108.393,-52.597
1.160,-92.851,70.744,108.393,-52.597
1.165,-92.802,70.737,108.393,-52.597
1.170,-92.738,70.716,108.393,-52.597
1.175,-92.738,70.716,108.393,-52.597
1.180,-92.689,70.695,108.393,-52.597
1.185,-92.647,70.696,108.393,-52.597
1.190,-92.647,70.696,108.393,-52.597
1.195,-92.598,70.675,108.393,-52.597
1.200,-92.556,70.633,108.393,-52.597
1.205,-92.443,70.627,108.393,-52.597
1.210,-92.415,70.606,108.393,-52.597
1.215,-92.352,70.586,108.393,-52.597
1.220,-92.352,70.586,108.393,-52.597
1.225,-92.303,70.565,108.393,-52.597
1.230,-92.239,70.544,108.393,-52.597
1.235,-92.232,70.524,108.393,-52.597
1.240,-92.106,70.510,108.393,-52.597
1.245,-92.106,70.510,108.393,-52.597
1.250,-91.993,70.490,108.393,-52.597
1.255,-91.965,70.469,108.393,-52.597
1.260,-91.902,70.448,108.393,-52.597
1.265,-91.874,70.428,108.393,-52.597
1.270,-91.825,70.379,108.393,-52.597
1.275,-91.783,70.358,108.393,-52.597
1.280,-91.670,70.317,108.393,-52.597
1.285,-91.621,70.317,108.393,-52.597
1.290,-91.572,70.255,108.393,-52.597
1.295,-91.501,70.227,108.393,-52.597
1.300,-91.452,70.165,108.393,-52.597
1.305,-91.361,70.124,108.393,-52.597
1.310,-91.248,70.076,108.393,-52.597
1.315,-91.199,70.027,108.393,-52.597
1.320,-91.129,69.986,108.393,-52.597
1.325,-91.079,69.937,108.393,-52.597
1.330,-91.030,69.875,108.393,-52.597
1.335,-90.939,69.792,108.393,-52.597
1.340,-90.890,69.729,108.393,-52.597
1.345,-90.861,69.681,108.393,-52.597
1.350,-90.763,69.618,108.393,-52.597
1.355,-90.735,69.556,108.393,-52.597
1.360,-90.685,69.508,108.393,-52.597
1.365,-90.636,69.445,108.393,-52.597
1.370,-90.573,69.383,108.393,-52.597
1.375,-90.566,69.348,108.393,-52.597
1.380,-90.517,69.286,108.393,-52.597
1.385,-90.418,69.202,108.393,-52.597
1.390,-90.390,69.175,108.393,-52.597
1.395,-90.341,69.113,108.393,-52.597
1.400,-90.235,69.071,108.393,-52.597
1.405,-90.186,69.009,108.393,-52.597
1.410,-90.158,68.960,108.393,-52.597
1.415,-90.109,68.898,108.393,-52.597
1.420,-90.059,68.877,108.393,-52.597
1.425,-89.968,68.829,108.393,-52.597
1.430,-89.926,68.808,108.393,-52.597
1.435,-89.877,68.746,108.393,-52.597
1.440,-89.827,68.725,108.393,-52.597
1.445,-89.778,68.677,108.393,-52.597
1.450,-89.687,68.649,108.393,-52.597
1.455,-89.687,68.607,108.393,-52.597
1.460,-89.637,68.608,108.393,-52.597
1.465,-89.567,68.525,108.393,-52.597
1.470,-89.518,68.476,108.393,-52.597
1.475,-89.469,68.414,108.393,-52.597
1.480,-89.419,68.351,108.393,-52.597
1.485,-89.328,68.303,108.393,-52.597
1.490,-89.300,68.220,108.393,-52.597
1.495,-89.251,68.136,108.393,-52.597
1.500,-89.173,67.984,108.393,-52.597
1.505,-89.075,67.887,108.393,-52.597
1.510,-89.018,67.720,108.393,-52.597
1.515,-88.920,67.588,108.393,-52.597
1.520,-88.856,67.394,108.393,-52.597
1.525,-88.772,67.199,108.393,-52.597
1.530,-88.652,67.019,108.393,-52.597
1.535,-88.567,66.783,108.393,-52.597
1.540,-88.455,66.526,108.393,-52.597
1.545,-88.391,66.290,108.393,-52.597
1.550,-88.215,66.006,108.393,-52.597
1.555,-88.173,65.728,108.393,-52.597
1.560,-87.997,65.402,108.393,-52.597
1.565,-87.792,65.055,108.393,-52.597
1.570,-87.588,64.645,108.393,-52.597
1.575,-87.363,64.257,108.393,-52.597
1.580,-87.180,63.840,108.393,-52.597
1.585,-87.039,63.410,108.393,-52.597
1.590,-86.765,62.980,108.393,-52.597
1.595,-86.497,62.480,108.393,-52.597
1.600,-86.265,61.945,108.393,-52.597
1.605,-86.011,61.466,108.393,-52.597
1.610,-85.779,60.904,108.393,-52.597
1.615,-85.484,60.321,108.393,-52.597
1.620,-85.167,59.745,108.393,-52.597
1.625,-84.921,59.197,108.393,-52.597
1.630,-84.632,58.635,108.393,-52.597
1.635,-84.449,58.079,108.393,-52.597
1.640,-84.140,57.496,108.393,-52.597
1.645,-83.872,56.934,108.393,-52.597
1.650,-83.612,56.413,108.393,-52.597
1.655,-83.373,55.899,108.393,-52.597
1.660,-83.155,55.385,108.393,-52.597
1.665,-82.895,54.851,108.393,-52.597
1.670,-82.614,54.344,108.393,-52.597
1.675,-82.403,53.872,108.393,-52.597
1.680,-82.213,53.421,108.393,-52.597
1.685,-81.981,52.991,108.393,-52.597
1.690,-81.777,52.581,108.393,-52.597
1.695,-81.566,52.151,108.393,-52.597
1.700,-81.320,51.790,108.393,-52.597
1.705,-81.116,51.464,108.393,-52.597
1.710,-80.997,51.145,108.393,-52.597
1.715,-80.856,50.846,108.393,-52.597
1.720,-80.659,50.603,108.393,-52.597
1.725,-80.484,50.367,108.393,-52.597
1.730,-80.350,50.152,108.393,-52.597
1.735,-80.196,49.958,108.393,-52.597
1.740,-80.041,49.820,108.393,-52.597
1.745,-79.908,49.633,108.393,-52.597
1.750,-79.816,49.459,108.393,-52.597
1.755,-79.704,49.327,108.393,-52.597
1.760,-79.557,49.154,108.393,-52.597
1.765,-79.465,49.022,108.393,-52.597
1.770,-79.416,48.876,108.393,-52.597
1.775,-79.290,48.724,108.393,-52.597
1.780,-79.219,48.550,108.393,-52.597
1.785,-79.107,48.342,108.393,-52.597
1.790,-79.002,48.169,108.393,-52.597
1.795,-78.910,47.974,108.393,-52.597
1.800,-78.861,47.780,108.393,-52.597
1.805,-78.727,47.523,108.393,-52.597
1.810,-78.615,47.266,108.393,-52.597
1.815,-78.510,46.988,108.393,-52.597
1.820,-78.418,46.710,108.393,-52.597
1.825,-78.264,46.405,108.393,-52.597
1.830,-78.172,46.106,108.393,-52.597
1.835,-78.081,45.786,108.393,-52.597
1.840,-77.927,45.439,108.393,-52.597
1.845,-77.779,45.057,108.393,-52.597
1.850,-77.625,44.668,108.393,-52.597
1.855,-77.428,44.217,108.393,-52.597
1.860,-77.168,43.766,108.393,-52.597
1.865,-76.908,43.294,108.393,-52.597
1.870,-76.635,42.738,108.393,-52.597
1.875,-76.375,42.217,108.393,-52.597
1.880,-76.059,41.613,108.393,-52.597
1.885,-75.680,40.954,108.393,-52.597
1.890,-75.343,40.322,108.393,-52.597
1.895,-75.027,39.614,108.393,-52.597
1.900,-74.711,38.885,108.393,-52.597
1.905,-74.255,38.114,108.393,-52.597
1.910,-73.862,37.316,108.393,-52.597
1.915,-73.532,36.462,108.393,-52.597
1.920,-73.083,35.580,108.393,-52.597
1.925,-72.536,34.573,108.393,-52.597
1.930,-72.073,33.580,108.393,-52.597
1.935,-71.576,32.552,108.393,-52.597
1.940,-71.057,31.475,108.393,-52.597
1.945,-70.503,30.378,108.393,-52.597
1.950,-69.998,29.239,108.393,-52.597
1.955,-69.367,28.100,108.393,-52.597
1.960,-68.729,26.913,108.393,-52.597
1.965,-68.134,25.732,108.393,-52.597
1.970,-67.419,24.482,108.393,-52.597
1.975,-66.753,23.218,108.393,-52.597
1.980,-66.130,21.982,108.393,-52.597
1.985,-65.373,20.690,108.393,-52.597
1.990,-64.603,19.420,108.393,-52.597
1.995,-63.881,18.079,108.393,-52.597
2.000,-63.097,16.739,108.393,-52.597
2.005,-62.306,15.427,108.393,-52.597
2.010,-61.494,14.129,108.393,-52.597
2.015,-60.654,12.802,108.393,-52.597
2.020,-59.813,11.462,108.393,-52.597
2.025,-58.917,10.178,108.393,-52.597
2.030,-58.190,8.886,108.393,-52.597
2.035,-57.441,7.629,108.393,-52.597
2.040,-56.580,6.386,108.393,-52.597
2.045,-55.881,5.171,108.393,-52.597
2.050,-55.195,4.039,108.393,-52.597
2.055,-54.419,2.907,108.393,-52.597
2.060,-53.740,1.754,108.393,-52.597
2.065,-53.125,0.663,108.393,-52.597
2.070,-52.489,-0.365,108.393,-52.597
2.075,-51.845,-1.324,108.393,-52.597
2.080,-51.272,-2.324,108.393,-52.597
2.085,-50.734,-3.262,108.393,-52.597
2.090,-50.231,-4.158,108.393,-52.597
2.095,-49.707,-4.978,108.393,-52.597
2.100,-49.161,-5.825,108.393,-52.597
2.105,-48.728,-6.576,108.393,-52.597
2.110,-48.337,-7.299,108.393,-52.597
2.115,-47.925,-8.021,108.393,-52.597
2.120,-47.590,-8.737,108.393,-52.597
2.125,-47.247,-9.377,108.393,-52.597
2.130,-46.961,-9.968,108.393,-52.597
2.135,-46.689,-10.503,108.393,-52.597
2.140,-46.445,-10.913,108.393,-52.597
2.145,-46.270,-11.267,108.393,-52.597
2.150,-46.179,-11.511,108.393,-52.597
2.155,-46.124,-11.678,108.393,-52.597
2.160,-46.124,-11.720,108.393,-52.597
2.165,-46.124,-11.720,108.393,-52.597
2.170,-46.124,-11.678,108.393,-52.597
2.175,-46.165,-11.553,108.393,-52.597
2.180,-46.207,-11.399,108.393,-52.597
2.185,-46.263,-11.177,108.393,-52.597
2.190,-46.346,-10.912,108.393,-52.597
2.195,-46.444,-10.565,108.393,-52.597
2.200,-46.569,-10.105,108.393,-52.597
2.205,-46.722,-9.576,108.393,-52.597
2.210,-46.903,-8.909,108.393,-52.597
2.215,-47.098,-8.185,108.393,-52.597
2.220,-47.307,-7.419,108.393,-52.597
2.225,-47.543,-6.571,108.393,-52.597
2.230,-47.766,-5.652,108.393,-52.597
2.235,-48.016,-4.678,108.393,-52.597
2.240,-48.281,-3.676,108.393,-52.597
2.245,-48.545,-2.605,108.393,-52.597
2.250,-48.810,-1.519,108.393,-52.597
2.255,-49.074,-0.392,108.393,-52.597
2.260,-49.338,0.777,108.393,-52.597
2.265,-49.617,2.016,108.393,-52.597
2.270,-49.895,3.254,108.393,-52.597
2.275,-50.159,4.507,108.393,-52.597
2.280,-50.424,5.829,108.393,-52.597
2.285,-50.688,7.151,108.393,-52.597
2.290,-50.953,8.445,108.393,-52.597
2.295,-51.189,9.697,108.393,-52.597
2.300,-51.426,10.991,108.393,-52.597
2.305,-51.662,12.286,108.393,-52.597
2.310,-51.871,13.524,108.393,-52.597
2.315,-52.080,14.749,108.393,-52.597
2.320,-52.275,15.973,108.393,-52.597
2.325,-52.456,17.184,108.393,-52.597
2.330,-52.622,18.325,108.393,-52.597
2.335,-52.789,19.466,108.393,-52.597
2.340,-52.956,20.621,108.393,-52.597
2.345,-53.110,21.748,108.393,-52.597
2.350,-53.249,22.904,108.393,-52.597
2.355,-53.388,23.975,108.393,-52.597
2.360,-53.548,25.109,108.393,-52.597
2.365,-53.856,26.235,108.393,-52.597
2.370,-54.234,27.354,108.393,-52.597
2.375,-54.689,28.431,108.393,-52.597
2.380,-55.298,29.493,108.393,-52.597
2.385,-55.992,30.562,108.393,-52.597
2.390,-56.749,31.665,108.393,-52.597
2.395,-57.534,32.706,108.393,-52.597
2.400,-58.221,33.733,108.393,-52.597
2.405,-58.873,34.683,108.393,-52.597
2.410,-59.525,35.647,108.393,-52.597
2.415,-60.002,36.529,108.393,-52.597
2.420,-60.542,37.396,108.393,-52.597
2.425,-61.019,38.236,108.393,-52.597
2.430,-61.362,39.014,108.393,-52.597
2.435,-61.678,39.716,108.393,-52.597
2.440,-61.958,40.403,108.393,-52.597
2.445,-62.141,41.029,108.393,-52.597
2.450,-62.365,41.675,108.393,-52.597
2.455,-62.498,42.252,108.393,-52.597
2.460,-62.541,42.725,108.393,-52.597
2.465,-62.555,43.128,108.393,-52.597
2.470,-62.555,43.490,108.393,-52.597
2.475,-62.568,43.727,108.393,-52.597
2.480,-62.568,43.852,108.393,-52.597
2.485,-62.568,43.921,108.393,-52.597
2.490,-62.568,43.921,108.393,-52.597
2.495,-62.568,43.894,108.393,-52.597
2.500,-62.568,43.810,108.393,-52.597
2.505,-62.568,43.685,108.393,-52.597
2.510,-62.555,43.560,108.393,-52.597
2.515,-62.555,43.448,108.393,-52.597
2.520,-62.555,43.281,108.393,-52.597
2.525,-62.555,43.086,108.393,-52.597
2.530,-62.555,42.892,108.393,-52.597
2.535,-62.541,42.655,108.393,-52.597
2.540,-62.541,42.377,108.393,-52.597
2.545,-62.527,42.126,108.393,-52.597
2.550,-62.527,41.820,108.393,-52.597
2.555,-62.513,41.542,108.393,-52.597
2.560,-62.471,41.180,108.393,-52.597
2.565,-62.394,40.798,108.393,-52.597
2.570,-62.064,40.368,108.393,-52.597
2.575,-61.615,39.890,108.393,-52.597
2.580,-60.955,39.329,108.393,-52.597
2.585,-60.015,38.700,108.393,-52.597
2.590,-58.991,38.093,108.393,-52.597
2.595,-58.051,37.394,108.393,-52.597
2.600,-57.034,36.759,108.393,-52.597
2.605,-56.122,36.130,108.393,-52.597
2.610,-55.231,35.466,108.393,-52.597
2.615,-54.382,34.899,108.393,-52.597
2.620,-53.576,34.333,108.393,-52.597
2.625,-52.874,33.828,108.393,-52.597
2.630,-52.180,33.330,108.393,-52.597
2.635,-51.598,32.859,108.393,-52.597
2.640,-50.946,32.403,108.393,-52.597
2.645,-50.490,32.002,108.393,-52.597
2.650,-50.000,31.573,108.393,-52.597
2.655,-49.586,31.143,108.393,-52.597
2.660,-49.095,30.756,108.393,-52.597
2.665,-48.724,30.388,108.393,-52.597
2.670,-48.415,30.077,108.393,-52.597
2.675,-48.065,29.710,108.393,-52.597
2.680,-47.637,29.363,108.393,-52.597
