Time (s),End Effector X (mm),End Effector Y (mm),Target X (mm),Target Y (mm),Force X (N),Force Y (N)
0.000,126.551,-4.312,144.000,-45.000
0.005,129.021,-3.465,144.000,-45.000
0.010,131.491,-2.568,144.000,-45.000
0.015,133.888,-1.736,144.000,-45.000
0.020,136.378,-0.809,144.000,-45.000
0.025,138.794,0.030,144.000,-45.000
0.030,141.188,0.861,144.000,-45.000
0.035,143.575,1.693,144.000,-45.000
0.040,145.904,2.522,144.000,-45.000
0.045,148.217,3.280,144.000,-45.000
0.050,150.624,4.133,144.000,-45.000
0.055,153.020,4.929,144.000,-45.000
0.060,155.389,5.753,144.000,-45.000
0.065,157.670,6.503,144.000,-45.000
0.070,160.073,7.348,144.000,-45.000
0.075,162.275,8.046,144.000,-45.000
0.080,164.447,8.735,144.000,-45.000
0.085,166.669,9.439,144.000,-45.000
0.090,168.783,10.076,144.000,-45.000
0.095,170.874,10.669,144.000,-45.000
0.100,172.973,11.262,144.000,-45.000
0.105,175.075,11.798,144.000,-45.000
0.110,177.051,12.258,144.000,-45.000
0.115,179.060,12.726,144.000,-45.000
0.120,180.962,13.126,144.000,-45.000
0.125,182.806,13.432,144.000,-45.000
0.130,184.621,13.707,144.000,-45.000
0.135,186.422,14.010,144.000,-45.000
0.140,188.101,14.210,144.000,-45.000
0.145,189.731,14.430,144.000,-45.000
0.150,191.317,14.590,144.000,-45.000
0.155,192.382,14.790,144.000,-45.000
0.160,193.406,14.943,144.000,-45.000
0.165,194.161,15.098,144.000,-45.000
0.170,194.930,15.260,144.000,-45.000
0.175,195.656,15.292,144.000,-45.000
0.180,196.196,15.218,144.000,-45.000
0.185,196.715,15.158,144.000,-45.000
0.190,197.115,15.031,144.000,-45.000
0.195,197.478,14.931,144.000,-45.000
0.200,197.759,14.844,144.000,-45.000
0.205,198.109,14.780,144.000,-45.000
0.210,198.375,14.671,144.000,-45.000
0.215,198.683,14.599,144.000,-45.000
0.220,198.892,14.474,144.000,-45.000
0.225,199.087,14.335,144.000,-45.000
0.230,199.295,14.196,144.000,-45.000
0.235,199.462,14.098,144.000,-45.000
0.240,199.588,14.015,144.000,-45.000
0.245,199.727,13.917,144.000,-45.000
0.250,199.824,13.862,144.000,-45.000
0.255,199.850,13.754,144.000,-45.000
0.260,199.784,13.601,144.000,-45.000
0.265,199.606,13.403,144.000,-45.000
0.270,199.313,13.158,144.000,-45.000
0.275,199.000,12.914,144.000,-45.000
0.280,198.630,12.638,144.000,-45.000
0.285,198.238,12.370,144.000,-45.000
0.290,197.827,12.130,144.000,-45.000
0.295,197.394,11.890,144.000,-45.000
0.300,196.861,11.582,144.000,-45.000
0.305,196.378,11.304,144.000,-45.000
0.310,195.824,10.996,144.000,-45.000
0.315,195.228,10.673,144.000,-45.000
0.320,194.596,10.327,144.000,-45.000
0.325,194.055,9.976,144.000,-45.000
0.330,193.372,9.499,144.000,-45.000
0.335,192.829,9.040,144.000,-45.000
0.340,192.173,8.528,144.000,-45.000
0.345,191.601,8.004,144.000,-45.000
0.350,190.824,7.396,144.000,-45.000
0.355,190.230,6.842,144.000,-45.000
0.360,189.395,6.211,144.000,-45.000
0.365,188.658,5.531,144.000,-45.000
0.370,187.708,4.739,144.000,-45.000
0.375,186.800,3.927,144.000,-45.000
0.380,185.984,3.152,144.000,-45.000
0.385,185.217,2.394,144.000,-45.000
0.390,184.648,1.740,144.000,-45.000
0.395,184.044,1.021,144.000,-45.000
0.400,183.490,0.354,144.000,-45.000
0.405,182.743,-0.419,144.000,-45.000
0.410,182.068,-1.168,144.000,-45.000
0.415,181.434,-1.916,144.000,-45.000
0.420,180.651,-2.747,144.000,-45.000
0.425,180.095,-3.507,144.000,-45.000
0.430,179.417,-4.314,144.000,-45.000
0.435,178.726,-5.106,144.000,-45.000
0.440,178.062,-5.962,144.000,-45.000
0.445,177.448,-6.717,144.000,-45.000
0.450,176.834,-7.500,144.000,-45.000
0.455,176.050,-8.387,144.000,-45.000
0.460,175.450,-9.192,144.000,-45.000
0.465,174.842,-9.974,144.000,-45.000
0.470,174.156,-10.795,144.000,-45.000
0.475,173.598,-11.605,144.000,-45.000
0.480,172.940,-12.453,144.000,-45.000
0.485,172.382,-13.234,144.000,-45.000
0.490,171.802,-14.017,144.000,-45.000
0.495,171.280,-14.789,144.000,-45.000
0.500,170.658,-15.558,144.000,-45.000
0.505,170.157,-16.287,144.000,-45.000
0.510,169.671,-17.002,144.000,-45.000
0.515,169.184,-17.731,144.000,-45.000
0.520,168.584,-18.448,144.000,-45.000
0.525,168.125,-19.147,144.000,-45.000
0.530,167.597,-19.835,144.000,-45.000
0.535,167.223,-20.474,144.000,-45.000
0.540,166.723,-21.189,144.000,-45.000
0.545,166.349,-21.829,144.000,-45.000
0.550,165.827,-22.544,144.000,-45.000
0.555,165.411,-23.178,144.000,-45.000
0.560,165.038,-23.817,144.000,-45.000
0.565,164.645,-24.451,144.000,-45.000
0.570,164.067,-25.116,144.000,-45.000
0.575,163.630,-25.736,144.000,-45.000
0.580,163.286,-26.318,144.000,-45.000
0.585,162.871,-26.930,144.000,-45.000
0.590,162.505,-27.548,144.000,-45.000
0.595,162.062,-28.162,144.000,-45.000
0.600,161.647,-28.744,144.000,-45.000
0.605,161.182,-29.377,144.000,-45.000
0.610,160.767,-29.975,144.000,-45.000
0.615,160.352,-30.543,144.000,-45.000
0.620,159.867,-31.113,144.000,-45.000
0.625,159.474,-31.697,144.000,-45.000
0.630,158.918,-32.254,144.000,-45.000
0.635,158.411,-32.824,144.000,-45.000
0.640,157.918,-33.394,144.000,-45.000
0.645,157.412,-33.950,144.000,-45.000
0.650,157.062,-34.504,144.000,-45.000
0.655,156.456,-35.010,144.000,-45.000
0.660,156.013,-35.565,144.000,-45.000
0.665,155.459,-36.079,144.000,-45.000
0.670,154.917,-36.621,144.000,-45.000
0.675,154.384,-37.070,144.000,-45.000
0.680,153.822,-37.599,144.000,-45.000
0.685,153.353,-38.018,144.000,-45.000
0.690,152.741,-38.496,144.000,-45.000
0.695,152.173,-38.953,144.000,-45.000
0.700,151.684,-39.336,144.000,-45.000
0.705,151.030,-39.831,144.000,-45.000
0.710,150.605,-40.184,144.000,-45.000
0.715,150.059,-40.576,144.000,-45.000
0.720,149.606,-40.915,144.000,-45.000
0.725,149.203,-41.261,144.000,-45.000
0.730,148.771,-41.535,144.000,-45.000
0.735,148.277,-41.868,144.000,-45.000
0.740,147.818,-42.150,144.000,-45.000
0.745,147.386,-42.482,144.000,-45.000
0.750,146.792,-42.796,144.000,-45.000
0.755,146.176,-43.131,144.000,-45.000
0.760,145.604,-43.387,144.000,-45.000
0.765,144.982,-43.687,144.000,-45.000
0.770,144.410,-43.979,144.000,-45.000
0.775,143.796,-44.221,144.000,-45.000
0.780,143.196,-44.485,144.000,-45.000
0.785,142.554,-44.678,144.000,-45.000
0.790,141.998,-44.876,144.000,-45.000
0.795,141.441,-45.097,144.000,-45.000
0.800,140.742,-45.341,144.000,-45.000
0.805,140.150,-45.539,144.000,-45.000
0.810,139.593,-45.738,144.000,-45.000
0.815,138.965,-45.952,144.000,-45.000
0.820,138.409,-46.151,144.000,-45.000
0.825,137.924,-46.297,144.000,-45.000
0.830,137.417,-46.480,144.000,-45.000
0.835,136.924,-46.627,144.000,-45.000
0.840,136.440,-46.810,144.000,-45.000
0.845,136.004,-46.954,144.000,-45.000
0.850,135.512,-47.101,144.000,-45.000
0.855,135.027,-47.284,144.000,-45.000
0.860,134.584,-47.437,144.000,-45.000
0.865,134.234,-47.552,144.000,-45.000
0.870,133.821,-47.683,144.000,-45.000
0.875,133.471,-47.798,144.000,-45.000
0.880,133.028,-47.943,144.000,-45.000
0.885,132.678,-48.058,144.000,-45.000
0.890,132.386,-48.143,144.000,-45.000
0.895,132.122,-48.256,144.000,-45.000
0.900,131.829,-48.320,144.000,-45.000
0.905,131.543,-48.419,144.000,-45.000
0.910,131.194,-48.534,144.000,-45.000
0.915,130.894,-48.634,144.000,-45.000
0.920,130.615,-48.733,144.000,-45.000
0.925,130.409,-48.802,144.000,-45.000
0.930,130.266,-48.848,144.000,-45.000
0.935,130.059,-48.896,144.000,-45.000
0.940,129.830,-48.979,144.000,-45.000
0.945,129.723,-49.011,144.000,-45.000
0.950,129.566,-49.078,144.000,-45.000
0.955,129.359,-49.126,144.000,-45.000
0.960,129.216,-49.171,144.000,-45.000
0.965,129.059,-49.225,144.000,-45.000
0.970,128.916,-49.279,144.000,-45.000
0.975,128.781,-49.288,144.000,-45.000
0.980,128.724,-49.340,144.000,-45.000
0.985,128.638,-49.356,144.000,-45.000
0.990,128.567,-49.372,144.000,-45.000
0.995,128.495,-49.410,144.000,-45.000
1.000,128.495,-49.410,144.000,-45.000
1.005,128.410,-49.425,144.000,-45.000
1.010,128.410,-49.425,144.000,-45.000
1.015,128.382,-49.411,144.000,-45.000
1.020,128.332,-49.406,144.000,-45.000
1.025,128.332,-49.406,144.000,-45.000
1.030,128.332,-49.406,144.000,-45.000
1.035,128.332,-49.406,144.000,-45.000
1.040,128.332,-49.406,144.000,-45.000
1.045,128.332,-49.406,144.000,-45.000
1.050,128.332,-49.406,144.000,-45.000
1.055,128.332,-49.406,144.000,-45.000
1.060,128.332,-49.406,144.000,-45.000
1.065,128.332,-49.406,144.000,-45.000
1.070,128.332,-49.406,144.000,-45.000
1.075,128.332,-49.406,144.000,-45.000
1.080,128.332,-49.406,144.000,-45.000
1.085,128.332,-49.406,144.000,-45.000
1.090,128.332,-49.406,144.000,-45.000
1.095,128.332,-49.406,144.000,-45.000
1.100,128.332,-49.406,144.000,-45.000
1.105,128.332,-49.406,144.000,-45.000
1.110,128.332,-49.406,144.000,-45.000
1.115,128.332,-49.406,144.000,-45.000
1.120,128.332,-49.406,144.000,-45.000
1.125,128.332,-49.406,144.000,-45.000
1.130,128.332,-49.406,144.000,-45.000
1.135,128.332,-49.406,144.000,-45.000
1.140,128.332,-49.406,144.000,-45.000
1.145,128.332,-49.406,144.000,-45.000
1.150,128.332,-49.406,144.000,-45.000
1.155,128.332,-49.406,144.000,-45.000
1.160,128.332,-49.406,144.000,-45.000
1.165,128.332,-49.406,144.000,-45.000
1.170,128.332,-49.406,144.000,-45.000
1.175,128.332,-49.406,144.000,-45.000
1.180,128.332,-49.406,144.000,-45.000
1.185,128.332,-49.406,144.000,-45.000
1.190,128.332,-49.406,144.000,-45.000
1.195,128.332,-49.406,144.000,-45.000
1.200,128.332,-49.406,144.000,-45.000
1.205,128.332,-49.406,144.000,-45.000
1.210,128.332,-49.406,144.000,-45.000
1.215,128.332,-49.406,144.000,-45.000
1.220,128.332,-49.406,144.000,-45.000
1.225,128.332,-49.406,144.000,-45.000
1.230,128.382,-49.411,144.000,-45.000
1.235,128.382,-49.411,144.000,-45.000
1.240,128.382,-49.411,144.000,-45.000
1.245,128.453,-49.382,144.000,-45.000
1.250,128.453,-49.382,144.000,-45.000
1.255,128.453,-49.382,144.000,-45.000
1.260,128.453,-49.382,144.000,-45.000
1.265,128.453,-49.382,144.000,-45.000
1.270,128.453,-49.382,144.000,-45.000
1.275,128.453,-49.382,144.000,-45.000
1.280,128.453,-49.382,144.000,-45.000
1.285,128.453,-49.382,144.000,-45.000
1.290,128.453,-49.382,144.000,-45.000
1.295,128.453,-49.382,144.000,-45.000
1.300,128.453,-49.382,144.000,-45.000
1.305,128.453,-49.382,144.000,-45.000
1.310,128.453,-49.382,144.000,-45.000
1.315,128.354,-49.384,144.000,-45.000
1.320,128.249,-49.336,144.000,-45.000
1.325,127.964,-49.364,144.000,-45.000
1.330,127.490,-49.367,144.000,-45.000
1.335,126.971,-49.429,144.000,-45.000
1.340,126.402,-49.470,144.000,-45.000
1.345,125.856,-49.504,144.000,-45.000
1.350,125.425,-49.442,144.000,-45.000
1.355,125.013,-49.444,144.000,-45.000
1.360,124.538,-49.448,144.000,-45.000
1.365,124.034,-49.481,144.000,-45.000
1.370,123.515,-49.535,144.000,-45.000
1.375,122.996,-49.582,144.000,-45.000
1.380,122.456,-49.652,144.000,-45.000
1.385,121.979,-49.727,144.000,-45.000
1.390,121.430,-49.832,144.000,-45.000
1.395,120.912,-49.880,144.000,-45.000
1.400,120.484,-49.917,144.000,-45.000
1.405,119.922,-50.008,144.000,-45.000
1.410,119.274,-50.123,144.000,-45.000
1.415,118.640,-50.216,144.000,-45.000
1.420,118.078,-50.308,144.000,-45.000
1.425,117.408,-50.401,144.000,-45.000
1.430,116.689,-50.518,144.000,-45.000
1.435,116.027,-50.597,144.000,-45.000
1.440,115.379,-50.668,144.000,-45.000
1.445,114.618,-50.735,144.000,-45.000
1.450,113.956,-50.837,144.000,-45.000
1.455,113.259,-50.888,144.000,-45.000
1.460,112.454,-50.999,144.000,-45.000
1.465,111.635,-51.082,144.000,-45.000
1.470,110.874,-51.149,144.000,-45.000
1.475,110.063,-51.175,144.000,-45.000
1.480,109.273,-51.286,144.000,-45.000
1.485,108.597,-51.337,144.000,-45.000
1.490,107.828,-51.404,144.000,-45.000
1.495,107.158,-51.470,144.000,-45.000
1.500,106.411,-51.515,144.000,-45.000
1.505,105.620,-51.648,144.000,-45.000
1.510,104.730,-51.711,144.000,-45.000
1.515,104.018,-51.749,144.000,-45.000
1.520,103.291,-51.844,144.000,-45.000
1.525,102.621,-51.881,144.000,-45.000
1.530,102.017,-51.909,144.000,-45.000
1.535,101.362,-51.974,144.000,-45.000
1.540,100.664,-52.012,144.000,-45.000
1.545,100.008,-52.055,144.000,-45.000
1.550,99.410,-52.104,144.000,-45.000
1.555,98.748,-52.120,144.000,-45.000
1.560,98.150,-52.170,144.000,-45.000
1.565,97.638,-52.181,144.000,-45.000
1.570,97.196,-52.177,144.000,-45.000
1.575,96.755,-52.195,144.000,-45.000
1.580,96.229,-52.207,144.000,-45.000
1.585,95.672,-52.284,144.000,-45.000
1.590,95.259,-52.307,144.000,-45.000
1.595,94.939,-52.301,144.000,-45.000
1.600,94.532,-52.353,144.000,-45.000
1.605,94.118,-52.377,144.000,-45.000
1.610,93.727,-52.400,144.000,-45.000
1.615,93.306,-52.460,144.000,-45.000
1.620,93.005,-52.495,144.000,-45.000
1.625,92.791,-52.543,144.000,-45.000
1.630,92.598,-52.591,144.000,-45.000
1.635,92.348,-52.638,144.000,-45.000
1.640,92.169,-52.686,144.000,-45.000
1.645,91.919,-52.741,144.000,-45.000
1.650,91.776,-52.773,144.000,-45.000
1.655,91.575,-52.821,144.000,-45.000
1.660,91.418,-52.852,144.000,-45.000
1.665,91.418,-52.852,144.000,-45.000
1.670,91.418,-52.852,144.000,-45.000
1.675,91.418,-52.852,144.000,-45.000
1.680,91.418,-52.852,144.000,-45.000
1.685,91.418,-52.852,144.000,-45.000
1.690,91.418,-52.852,144.000,-45.000
1.695,91.418,-52.852,144.000,-45.000
1.700,91.503,-52.837,144.000,-45.000
1.705,91.575,-52.821,144.000,-45.000
1.710,91.718,-52.803,144.000,-45.000
1.715,91.847,-52.757,144.000,-45.000
1.720,92.004,-52.718,144.000,-45.000
1.725,92.169,-52.686,144.000,-45.000
1.730,92.348,-52.638,144.000,-45.000
1.735,92.505,-52.606,144.000,-45.000
1.740,92.670,-52.575,144.000,-45.000
1.745,92.791,-52.543,144.000,-45.000
1.750,93.005,-52.495,144.000,-45.000
1.755,93.220,-52.462,144.000,-45.000
1.760,93.421,-52.400,144.000,-45.000
1.765,93.671,-52.345,144.000,-45.000
1.770,93.850,-52.305,144.000,-45.000
1.775,94.172,-52.234,144.000,-45.000
1.780,94.351,-52.186,144.000,-45.000
1.785,94.579,-52.138,144.000,-45.000
1.790,94.865,-52.075,144.000,-45.000
1.795,95.173,-51.990,144.000,-45.000
1.800,95.438,-51.926,144.000,-45.000
1.805,95.746,-51.876,144.000,-45.000
1.810,96.010,-51.799,144.000,-45.000
1.815,96.296,-51.750,144.000,-45.000
1.820,96.596,-51.664,144.000,-45.000
1.825,96.868,-51.601,144.000,-45.000
1.830,97.168,-51.537,144.000,-45.000
1.835,97.526,-51.458,144.000,-45.000
1.840,97.862,-51.379,144.000,-45.000
1.845,98.170,-51.293,144.000,-45.000
1.850,98.506,-51.214,144.000,-45.000
1.855,98.814,-51.129,144.000,-45.000
1.860,99.078,-51.065,144.000,-45.000
1.865,99.436,-50.986,144.000,-45.000
1.870,99.879,-50.891,144.000,-45.000
1.875,100.308,-50.773,144.000,-45.000
1.880,100.666,-50.686,144.000,-45.000
1.885,100.930,-50.609,144.000,-45.000
1.890,101.359,-50.514,144.000,-45.000
1.895,101.802,-50.396,144.000,-45.000
1.900,102.231,-50.315,144.000,-45.000
1.905,102.517,-50.216,144.000,-45.000
1.910,102.853,-50.137,144.000,-45.000
1.915,103.225,-50.071,144.000,-45.000
1.920,103.654,-49.940,144.000,-45.000
1.925,104.075,-49.845,144.000,-45.000
1.930,104.505,-49.706,144.000,-45.000
1.935,104.862,-49.627,144.000,-45.000
1.940,105.283,-49.531,144.000,-45.000
1.945,105.713,-49.414,144.000,-45.000
1.950,106.205,-49.281,144.000,-45.000
1.955,106.635,-49.172,144.000,-45.000
1.960,107.064,-49.055,144.000,-45.000
1.965,107.507,-48.938,144.000,-45.000
1.970,107.914,-48.829,144.000,-45.000
1.975,108.344,-48.712,144.000,-45.000
1.980,108.765,-48.609,144.000,-45.000
1.985,109.258,-48.484,144.000,-45.000
1.990,109.758,-48.351,144.000,-45.000
1.995,110.251,-48.204,144.000,-45.000
2.000,110.766,-48.071,144.000,-45.000
2.005,111.173,-47.954,144.000,-45.000
2.010,111.737,-47.791,144.000,-45.000
2.015,112.324,-47.643,144.000,-45.000
2.020,112.731,-47.512,144.000,-45.000
2.025,113.224,-47.401,144.000,-45.000
2.030,113.717,-47.268,144.000,-45.000
2.035,114.303,-47.083,144.000,-45.000
2.040,114.710,-46.988,144.000,-45.000
2.045,115.153,-46.835,144.000,-45.000
2.050,115.561,-46.704,144.000,-45.000
2.055,116.125,-46.555,144.000,-45.000
2.060,116.546,-46.424,144.000,-45.000
2.065,116.989,-46.307,144.000,-45.000
2.070,117.411,-46.212,144.000,-45.000
2.075,117.975,-46.027,144.000,-45.000
2.080,118.539,-45.879,144.000,-45.000
2.085,119.090,-45.680,144.000,-45.000
2.090,119.789,-45.500,144.000,-45.000
2.095,120.439,-45.299,144.000,-45.000
2.100,121.061,-45.107,144.000,-45.000
2.105,121.760,-44.904,144.000,-45.000
2.110,122.368,-44.698,144.000,-45.000
2.115,122.976,-44.469,144.000,-45.000
2.120,123.706,-44.209,144.000,-45.000
2.125,124.328,-43.981,144.000,-45.000
2.130,124.914,-43.753,144.000,-45.000
2.135,125.685,-43.521,144.000,-45.000
2.140,126.307,-43.263,144.000,-45.000
2.145,126.879,-43.050,144.000,-45.000
2.150,127.622,-42.812,144.000,-45.000
2.155,128.222,-42.556,144.000,-45.000
2.160,128.802,-42.328,144.000,-45.000
2.165,129.518,-42.040,144.000,-45.000
2.170,130.148,-41.746,144.000,-45.000
2.175,130.734,-41.504,144.000,-45.000
2.180,131.378,-41.216,144.000,-45.000
2.185,132.007,-40.960,144.000,-45.000
2.190,132.701,-40.636,144.000,-45.000
2.195,133.416,-40.327,144.000,-45.000
2.200,133.996,-40.071,144.000,-45.000
2.205,134.662,-39.755,144.000,-45.000
2.210,135.264,-39.419,144.000,-45.000
2.215,135.787,-39.135,144.000,-45.000
2.220,136.460,-38.798,144.000,-45.000
2.225,137.035,-38.470,144.000,-45.000
2.230,137.587,-38.107,144.000,-45.000
2.235,138.161,-37.779,144.000,-45.000
2.240,138.656,-37.481,144.000,-45.000
2.245,139.230,-37.118,144.000,-45.000
2.250,139.804,-36.768,144.000,-45.000
2.255,140.285,-36.457,144.000,-45.000
2.260,140.774,-36.109,144.000,-45.000
2.265,141.235,-35.770,144.000,-45.000
2.270,141.688,-35.430,144.000,-45.000
2.275,142.006,-35.122,144.000,-45.000
2.280,142.544,-34.759,144.000,-45.000
2.285,142.934,-34.413,144.000,-45.000
2.290,143.224,-34.091,144.000,-45.000
2.295,143.641,-33.768,144.000,-45.000
2.300,144.030,-33.422,144.000,-45.000
2.305,144.348,-33.128,144.000,-45.000
2.310,144.680,-32.834,144.000,-45.000
2.315,144.948,-32.498,144.000,-45.000
2.320,145.238,-32.177,144.000,-45.000
2.325,145.457,-31.893,144.000,-45.000
2.330,145.647,-31.559,144.000,-45.000
2.335,145.832,-31.211,144.000,-45.000
2.340,146.031,-30.834,144.000,-45.000
2.345,146.172,-30.516,144.000,-45.000
2.350,146.305,-30.248,144.000,-45.000
2.355,146.374,-29.944,144.000,-45.000
2.360,146.473,-29.650,144.000,-45.000
2.365,146.579,-29.332,144.000,-45.000
2.370,146.755,-29.006,144.000,-45.000
2.375,146.769,-28.676,144.000,-45.000
2.380,146.789,-28.382,144.000,-45.000
2.385,146.745,-28.118,144.000,-45.000
2.390,146.660,-27.798,144.000,-45.000
2.395,146.588,-27.492,144.000,-45.000
2.400,146.538,-27.200,144.000,-45.000
2.405,146.472,-26.922,144.000,-45.000
2.410,146.464,-26.657,144.000,-45.000
2.415,146.397,-26.472,144.000,-45.000
2.420,146.260,-26.254,144.000,-45.000
2.425,146.180,-26.019,144.000,-45.000
2.430,146.021,-25.823,144.000,-45.000
2.435,145.784,-25.628,144.000,-45.000
2.440,145.647,-25.409,144.000,-45.000
2.445,145.424,-25.228,144.000,-45.000
2.450,145.216,-25.047,144.000,-45.000
2.455,144.993,-24.866,144.000,-45.000
2.460,144.756,-24.672,144.000,-45.000
2.465,144.506,-24.463,144.000,-45.000
2.470,144.297,-24.282,144.000,-45.000
2.475,144.116,-24.129,144.000,-45.000
2.480,144.005,-24.031,144.000,-45.000
2.485,143.838,-23.892,144.000,-45.000
2.490,143.657,-23.739,144.000,-45.000
2.495,143.546,-23.642,144.000,-45.000
2.500,143.421,-23.530,144.000,-45.000
2.505,143.337,-23.461,144.000,-45.000
2.510,143.198,-23.349,144.000,-45.000
2.515,143.059,-23.224,144.000,-45.000
2.520,142.862,-23.165,144.000,-45.000
2.525,142.743,-23.125,144.000,-45.000
2.530,142.472,-23.174,144.000,-45.000
2.535,142.260,-23.194,144.000,-45.000
2.540,141.982,-23.315,144.000,-45.000
2.545,141.703,-23.401,144.000,-45.000
2.550,141.461,-23.500,144.000,-45.000
2.555,141.254,-23.569,144.000,-45.000
2.560,140.990,-23.668,144.000,-45.000
2.565,140.712,-23.790,144.000,-45.000
2.570,140.455,-23.875,144.000,-45.000
2.575,140.120,-24.012,144.000,-45.000
2.580,139.863,-24.097,144.000,-45.000
2.585,139.577,-24.182,144.000,-45.000
2.590,139.307,-24.282,144.000,-45.000
2.595,139.043,-24.389,144.000,-45.000
2.600,138.800,-24.488,144.000,-45.000
2.605,138.522,-24.573,144.000,-45.000
2.610,138.172,-24.710,144.000,-45.000
2.615,137.858,-24.826,144.000,-45.000
2.620,137.580,-24.933,144.000,-45.000
2.625,137.316,-25.018,144.000,-45.000
2.630,137.059,-25.119,144.000,-45.000
2.635,136.638,-25.256,144.000,-45.000
