Time (s),End Effector X (mm),End Effector Y (mm),Target X (mm),Target Y (mm),Force X (N),Force Y (N)
0.000,-76.464,44.471,-62.463,76.085
0.005,-76.750,45.111,-62.463,76.085
0.010,-77.153,45.819,-62.463,76.085
0.015,-77.505,46.457,-62.463,76.085
0.020,-77.842,47.159,-62.463,76.085
0.025,-78.136,47.799,-62.463,76.085
0.030,-78.408,48.481,-62.463,76.085
0.035,-78.702,49.122,-62.463,76.085
0.040,-78.974,49.754,-62.463,76.085
0.045,-79.211,50.360,-62.463,76.085
0.050,-79.417,50.939,-62.463,76.085
0.055,-79.646,51.595,108.393,-52.597
0.060,-79.882,52.174,108.393,-52.597
0.065,-80.045,52.663,108.393,-52.597
0.070,-80.112,53.009,108.393,-52.597
0.075,-80.259,53.353,108.393,-52.597
0.080,-80.327,53.671,108.393,-52.597
0.085,-80.460,53.987,108.393,-52.597
0.090,-80.541,54.222,108.393,-52.597
0.095,-80.579,54.436,108.393,-52.597
0.100,-80.579,54.548,108.393,-52.597
0.105,-80.551,54.715,108.393,-52.597
0.110,-80.537,54.868,108.393,-52.597
0.115,-80.523,55.035,108.393,-52.597
0.120,-80.510,55.146,108.393,-52.597
0.125,-80.510,55.230,108.393,-52.597
0.130,-80.496,55.271,108.393,-52.597
0.135,-80.496,55.313,108.393,-52.597
0.140,-80.482,55.383,108.393,-52.597
0.145,-80.482,55.383,108.393,-52.597
0.150,-80.482,55.424,108.393,-52.597
0.155,-80.482,55.452,108.393,-52.597
0.160,-80.468,55.494,108.393,-52.597
0.165,-80.468,55.536,108.393,-52.597
0.170,-80.468,55.578,108.393,-52.597
0.175,-80.468,55.578,108.393,-52.597
0.180,-80.468,55.578,108.393,-52.597
0.185,-80.468,55.578,108.393,-52.597
0.190,-80.402,55.558,108.393,-52.597
0.195,-80.337,55.538,108.393,-52.597
0.200,-80.263,55.512,108.393,-52.597
0.205,-80.080,55.488,108.393,-52.597
0.210,-79.985,55.448,108.393,-52.597
0.215,-79.876,55.430,108.393,-52.597
0.220,-79.715,55.384,108.393,-52.597
0.225,-79.576,55.347,108.393,-52.597
0.230,-79.415,55.287,108.393,-52.597
0.235,-79.232,55.263,108.393,-52.597
0.240,-79.093,55.203,108.393,-52.597
0.245,-78.918,55.179,108.393,-52.597
0.250,-78.728,55.100,108.393,-52.597
0.255,-78.501,55.056,108.393,-52.597
0.260,-78.362,55.018,108.393,-52.597
0.265,-78.136,54.974,108.393,-52.597
0.270,-77.866,54.911,108.393,-52.597
0.275,-77.661,54.831,108.393,-52.597
0.280,-77.435,54.787,108.393,-52.597
0.285,-77.200,54.751,108.393,-52.597
0.290,-76.974,54.707,108.393,-52.597
0.295,-76.638,54.624,108.393,-52.597
0.300,-76.382,54.560,108.393,-52.597
0.305,-76.068,54.498,108.393,-52.597
0.310,-75.776,54.476,108.393,-52.597
0.315,-75.542,54.377,108.393,-52.597
0.320,-75.272,54.355,108.393,-52.597
0.325,-74.958,54.335,108.393,-52.597
0.330,-74.622,54.321,108.393,-52.597
0.335,-74.286,54.384,108.393,-52.597
0.340,-74.002,54.432,108.393,-52.597
0.345,-73.740,54.499,108.393,-52.597
0.350,-73.404,54.591,108.393,-52.597
0.355,-73.025,54.676,108.393,-52.597
0.360,-72.675,54.745,108.393,-52.597
0.365,-72.427,54.793,108.393,-52.597
0.370,-72.143,54.882,108.393,-52.597
0.375,-71.750,55.010,108.393,-52.597
0.380,-71.370,55.059,108.393,-52.597
0.385,-71.035,55.123,108.393,-52.597
0.390,-70.751,55.170,108.393,-52.597
0.395,-70.437,55.261,108.393,-52.597
0.400,-70.057,55.263,108.393,-52.597
0.405,-69.744,55.291,108.393,-52.597
0.410,-69.394,55.354,108.393,-52.597
0.415,-69.124,55.402,108.393,-52.597
0.420,-68.810,55.452,108.393,-52.597
0.425,-68.365,55.434,108.393,-52.597
0.430,-67.986,55.435,108.393,-52.597
0.435,-67.672,55.435,108.393,-52.597
0.440,-67.292,55.437,108.393,-52.597
0.445,-66.869,55.441,108.393,-52.597
0.450,-66.438,55.381,108.393,-52.597
0.455,-66.059,55.383,108.393,-52.597
0.460,-65.636,55.351,108.393,-52.597
0.465,-65.161,55.335,108.393,-52.597
0.470,-64.782,55.295,108.393,-52.597
0.475,-64.359,55.277,108.393,-52.597
0.480,-63.818,55.199,108.393,-52.597
0.485,-63.395,55.161,108.393,-52.597
0.490,-62.964,55.073,108.393,-52.597
0.495,-62.446,54.954,108.393,-52.597
0.500,-61.957,54.854,108.393,-52.597
0.505,-61.548,54.775,108.393,-52.597
0.510,-60.986,54.649,108.393,-52.597
0.515,-60.497,54.571,108.393,-52.597
0.520,-59.957,54.466,108.393,-52.597
0.525,-59.490,54.366,108.393,-52.597
0.530,-59.015,54.267,108.393,-52.597
0.535,-58.527,54.181,108.393,-52.597
0.540,-57.994,54.097,108.393,-52.597
0.545,-57.520,53.998,108.393,-52.597
0.550,-57.096,53.918,108.393,-52.597
0.555,-56.608,53.818,108.393,-52.597
0.560,-56.141,53.733,108.393,-52.597
0.565,-55.718,53.653,108.393,-52.597
0.570,-55.229,53.575,108.393,-52.597
0.575,-54.697,53.477,108.393,-52.597
0.580,-54.274,53.412,108.393,-52.597
0.585,-53.763,53.292,108.393,-52.597
0.590,-53.209,53.216,108.393,-52.597
0.595,-52.742,53.131,108.393,-52.597
0.600,-52.276,53.031,108.393,-52.597
0.605,-51.743,52.955,108.393,-52.597
0.610,-51.306,52.891,108.393,-52.597
0.615,-50.752,52.792,108.393,-52.597
0.620,-50.241,52.694,108.393,-52.597
0.625,-49.761,52.616,108.393,-52.597
0.630,-49.185,52.535,108.393,-52.597
0.635,-48.587,52.453,108.393,-52.597
0.640,-48.084,52.375,108.393,-52.597
0.645,-47.464,52.259,108.393,-52.597
0.650,-46.984,52.182,108.393,-52.597
0.655,-46.459,52.098,108.393,-52.597
0.660,-45.818,51.996,108.393,-52.597
0.665,-45.271,51.920,108.393,-52.597
0.670,-44.682,51.860,108.393,-52.597
0.675,-44.092,51.743,108.393,-52.597
0.680,-43.545,51.667,108.393,-52.597
0.685,-42.912,51.587,108.393,-52.597
0.690,-42.365,51.525,108.393,-52.597
0.695,-41.732,51.446,108.393,-52.597
0.700,-41.098,51.330,108.393,-52.597
0.705,-40.508,51.270,108.393,-52.597
0.710,-39.940,51.190,108.393,-52.597
0.715,-39.314,51.114,108.393,-52.597
0.720,-38.702,51.035,108.393,-52.597
0.725,-37.989,50.943,108.393,-52.597
0.730,-37.421,50.861,108.393,-52.597
0.735,-36.708,50.783,108.393,-52.597
0.740,-36.140,50.709,108.393,-52.597
0.745,-35.427,50.631,108.393,-52.597
0.750,-34.779,50.573,108.393,-52.597
0.755,-34.022,50.476,108.393,-52.597
0.760,-33.331,50.384,108.393,-52.597
0.765,-32.691,50.326,108.393,-52.597
0.770,-31.935,50.250,108.393,-52.597
0.775,-31.243,50.172,108.393,-52.597
0.780,-30.429,50.098,108.393,-52.597
0.785,-29.680,50.022,108.393,-52.597
0.790,-28.967,49.924,108.393,-52.597
0.795,-28.218,49.848,108.393,-52.597
0.800,-27.469,49.731,108.393,-52.597
0.805,-26.706,49.565,108.393,-52.597
0.810,-25.856,49.360,108.393,-52.597
0.815,-25.115,49.201,108.393,-52.597
0.820,-24.330,48.954,108.393,-52.597
0.825,-23.546,48.725,108.393,-52.597
0.830,-22.725,48.484,108.393,-52.597
0.835,-21.970,48.235,108.393,-52.597
0.840,-21.194,47.986,108.393,-52.597
0.845,-20.395,47.737,108.393,-52.597
0.850,-19.583,47.448,108.393,-52.597
0.855,-18.704,47.140,108.393,-52.597
0.860,-17.914,46.871,108.393,-52.597
0.865,-16.964,46.578,108.393,-52.597
0.870,-16.239,46.307,108.393,-52.597
0.875,-15.268,45.981,108.393,-52.597
0.880,-14.543,45.668,108.393,-52.597
0.885,-13.579,45.356,108.393,-52.597
0.890,-12.782,45.045,108.393,-52.597
0.895,-11.833,44.725,108.393,-52.597
0.900,-10.979,44.374,108.393,-52.597
0.905,-10.124,44.038,108.393,-52.597
0.910,-9.191,43.662,108.393,-52.597
0.915,-8.323,43.284,108.393,-52.597
0.920,-7.397,42.885,108.393,-52.597
0.925,-6.515,42.487,108.393,-52.597
0.930,-5.531,42.085,108.393,-52.597
0.935,-4.635,41.665,108.393,-52.597
0.940,-3.616,41.222,108.393,-52.597
0.945,-2.684,40.818,108.393,-52.597
0.950,-1.717,40.394,108.393,-52.597
0.955,-0.749,39.914,108.393,-52.597
0.960,0.175,39.446,108.393,-52.597
0.965,1.192,38.975,108.393,-52.597
0.970,2.108,38.507,108.393,-52.597
0.975,3.117,38.000,108.393,-52.597
0.980,4.047,37.504,108.393,-52.597
0.985,5.048,36.969,108.393,-52.597
0.990,6.006,36.453,108.393,-52.597
0.995,6.963,35.860,108.393,-52.597
1.000,7.935,35.297,108.393,-52.597
1.005,8.863,34.786,108.393,-52.597
1.010,9.870,34.195,108.393,-52.597
1.015,10.826,33.636,108.393,-52.597
1.020,11.817,33.037,108.393,-52.597
1.025,12.707,32.420,108.393,-52.597
1.030,13.721,31.822,108.393,-52.597
1.035,14.682,31.256,108.393,-52.597
1.040,15.616,30.753,108.393,-52.597
1.045,16.500,30.339,108.393,-52.597
1.050,17.434,29.927,108.393,-52.597
1.055,18.289,29.477,108.393,-52.597
1.060,19.165,29.077,108.393,-52.597
1.065,20.033,28.642,108.393,-52.597
1.070,20.866,28.198,108.393,-52.597
1.075,21.784,27.736,108.393,-52.597
1.080,22.564,27.255,108.393,-52.597
1.085,23.403,26.813,108.393,-52.597
1.090,24.263,26.375,108.393,-52.597
1.095,25.102,25.890,108.393,-52.597
1.100,25.897,25.494,108.393,-52.597
1.105,26.691,25.048,108.393,-52.597
1.110,27.500,24.561,108.393,-52.597
1.115,28.194,24.133,108.393,-52.597
1.120,28.959,23.644,108.393,-52.597
1.125,29.724,23.162,108.393,-52.597
1.130,30.437,22.643,108.393,-52.597
1.135,31.158,22.173,108.393,-52.597
1.140,31.951,21.664,108.393,-52.597
1.145,32.549,21.149,108.393,-52.597
1.150,33.298,20.588,108.393,-52.597
1.155,34.026,20.077,108.393,-52.597
1.160,34.745,19.508,108.393,-52.597
1.165,35.371,18.951,108.393,-52.597
1.170,36.061,18.339,108.393,-52.597
1.175,36.728,17.712,108.393,-52.597
1.180,37.325,17.090,108.393,-52.597
1.185,37.913,16.481,108.393,-52.597
1.190,38.581,15.869,108.393,-52.597
1.195,39.226,15.240,108.393,-52.597
1.200,39.807,14.596,108.393,-52.597
1.205,40.459,13.904,108.393,-52.597
1.210,40.967,13.293,108.393,-52.597
1.215,41.619,12.651,108.393,-52.597
1.220,42.214,12.021,108.393,-52.597
1.225,42.973,11.353,108.393,-52.597
1.230,43.638,10.696,108.393,-52.597
1.235,44.260,10.010,108.393,-52.597
1.240,44.954,9.326,108.393,-52.597
1.245,45.741,8.616,108.393,-52.597
1.250,46.377,7.944,108.393,-52.597
1.255,47.099,7.232,108.393,-52.597
1.260,47.677,6.502,108.393,-52.597
1.265,48.369,5.810,108.393,-52.597
1.270,49.060,5.069,108.393,-52.597
1.275,49.752,4.327,108.393,-52.597
1.280,50.430,3.613,108.393,-52.597
1.285,51.078,2.856,108.393,-52.597
1.290,51.654,2.110,108.393,-52.597
1.295,52.272,1.323,108.393,-52.597
1.300,52.934,0.537,108.393,-52.597
1.305,53.596,-0.212,108.393,-52.597
1.310,54.272,-0.964,108.393,-52.597
1.315,54.904,-1.729,108.393,-52.597
1.320,55.550,-2.545,108.393,-52.597
1.325,56.138,-3.362,108.393,-52.597
1.330,56.726,-4.179,108.393,-52.597
1.335,57.323,-4.954,108.393,-52.597
1.340,57.903,-5.771,108.393,-52.597
1.345,58.519,-6.603,108.393,-52.597
1.350,59.078,-7.449,108.393,-52.597
1.355,59.716,-8.245,108.393,-52.597
1.360,60.338,-9.098,108.393,-52.597
1.365,60.883,-9.903,108.393,-52.597
1.370,61.455,-10.728,108.393,-52.597
1.375,62.028,-11.533,108.393,-52.597
1.380,62.622,-12.338,108.393,-52.597
1.385,63.095,-13.104,108.393,-52.597
1.390,63.682,-13.909,108.393,-52.597
1.395,64.197,-14.716,108.393,-52.597
1.400,64.769,-15.507,108.393,-52.597
1.405,65.298,-16.314,108.393,-52.597
1.410,65.813,-17.108,108.393,-52.597
1.415,66.342,-17.901,108.393,-52.597
1.420,66.857,-18.666,108.393,-52.597
1.425,67.358,-19.432,108.393,-52.597
1.430,67.914,-20.253,108.393,-52.597
1.435,68.457,-21.046,108.393,-52.597
1.440,69.000,-21.825,108.393,-52.597
1.445,69.529,-22.577,108.393,-52.597
1.450,70.071,-23.356,108.393,-52.597
1.455,70.628,-24.135,108.393,-52.597
1.460,71.185,-24.914,108.393,-52.597
1.465,71.741,-25.694,108.393,-52.597
1.470,72.298,-26.459,108.393,-52.597
1.475,72.868,-27.224,108.393,-52.597
1.480,73.439,-28.004,108.393,-52.597
1.485,74.023,-28.797,108.393,-52.597
1.490,74.608,-29.562,108.393,-52.597
1.495,75.192,-30.328,108.393,-52.597
1.500,75.763,-31.065,108.393,-52.597
1.505,76.347,-31.831,108.393,-52.597
1.510,76.960,-32.610,108.393,-52.597
1.515,77.558,-33.361,108.393,-52.597
1.520,78.156,-34.113,108.393,-52.597
1.525,78.713,-34.823,108.393,-52.597
1.530,79.226,-35.548,108.393,-52.597
1.535,79.797,-36.258,108.393,-52.597
1.540,80.282,-36.942,108.393,-52.597
1.545,80.759,-37.640,108.393,-52.597
1.550,81.258,-38.323,108.393,-52.597
1.555,81.787,-38.964,108.393,-52.597
1.560,82.258,-39.641,108.393,-52.597
1.565,82.757,-40.325,108.393,-52.597
1.570,83.272,-40.951,108.393,-52.597
1.575,83.765,-41.544,108.393,-52.597
1.580,84.294,-42.142,108.393,-52.597
1.585,84.751,-42.756,108.393,-52.597
1.590,85.280,-43.355,108.393,-52.597
1.595,85.795,-43.953,108.393,-52.597
1.600,86.252,-44.554,108.393,-52.597
1.605,86.767,-45.152,-11.596,-26.717
1.610,87.268,-45.681,-11.596,-26.717
1.615,87.755,-46.210,-11.596,-26.717
1.620,88.214,-46.711,-11.596,-26.717
1.625,88.673,-47.212,-11.596,-26.717
1.630,89.077,-47.643,-11.596,-26.717
1.635,89.494,-48.088,-11.596,-26.717
1.640,89.870,-48.492,-11.596,-26.717
1.645,90.218,-48.854,-11.596,-26.717
1.650,90.580,-49.229,-11.596,-26.717
1.655,90.886,-49.549,-11.596,-26.717
1.660,91.178,-49.870,-11.596,-26.717
1.665,91.457,-50.162,-11.596,-26.717
1.670,91.707,-50.426,-11.596,-26.717
1.675,91.958,-50.677,-11.596,-26.717
1.680,92.152,-50.871,-11.596,-26.717
1.685,92.333,-51.066,-11.596,-26.717
1.690,92.528,-51.275,-11.596,-26.717
1.695,92.681,-51.414,-11.596,-26.717
1.700,92.820,-51.553,-11.596,-26.717
1.705,92.946,-51.693,-11.596,-26.717
1.710,93.043,-51.790,-11.596,-26.717
1.715,93.113,-51.873,-11.596,-26.717
1.720,93.182,-51.929,-11.596,-26.717
1.725,93.238,-51.985,-11.596,-26.717
1.730,93.238,-51.985,-11.596,-26.717
1.735,93.266,-52.013,-11.596,-26.717
1.740,93.266,-52.013,-11.596,-26.717
1.745,93.266,-52.013,-11.596,-26.717
1.750,93.266,-52.013,-11.596,-26.717
1.755,93.266,-52.013,-11.596,-26.717
1.760,93.266,-52.013,-11.596,-26.717
1.765,93.266,-52.013,-11.596,-26.717
1.770,93.266,-52.013,-11.596,-26.717
1.775,93.266,-52.013,-11.596,-26.717
1.780,93.293,-52.040,-11.596,-26.717
1.785,93.307,-52.068,-11.596,-26.717
1.790,93.335,-52.096,-11.596,-26.717
1.795,93.335,-52.096,-11.596,-26.717
1.800,93.335,-52.096,-11.596,-26.717
1.805,93.335,-52.096,-11.596,-26.717
1.810,93.421,-52.080,-11.596,-26.717
1.815,93.421,-52.080,-11.596,-26.717
1.820,93.492,-52.064,-11.596,-26.717
1.825,93.492,-52.064,-11.596,-26.717
1.830,93.542,-52.070,-11.596,-26.717
1.835,93.542,-52.070,-11.596,-26.717
1.840,93.542,-52.070,-11.596,-26.717
1.845,93.542,-52.070,-11.596,-26.717
1.850,93.613,-52.068,-11.596,-26.717
1.855,93.613,-52.068,-11.596,-26.717
1.860,93.613,-52.068,-11.596,-26.717
1.865,93.613,-52.068,-11.596,-26.717
1.870,93.685,-52.031,-11.596,-26.717
1.875,93.685,-52.031,-11.596,-26.717
1.880,93.685,-52.031,-11.596,-26.717
1.885,93.685,-52.031,-11.596,-26.717
1.890,93.685,-52.031,-11.596,-26.717
1.895,93.685,-52.031,-11.596,-26.717
1.900,93.685,-52.031,-11.596,-26.717
1.905,93.685,-52.031,-11.596,-26.717
1.910,93.685,-52.031,-11.596,-26.717
1.915,93.685,-52.031,-11.596,-26.717
1.920,93.685,-52.031,-11.596,-26.717
1.925,93.685,-52.031,-11.596,-26.717
1.930,93.685,-52.031,-11.596,-26.717
1.935,93.685,-52.031,-11.596,-26.717
1.940,93.685,-52.031,-11.596,-26.717
1.945,93.685,-52.031,-11.596,-26.717
1.950,93.685,-52.031,-11.596,-26.717
1.955,93.685,-52.031,-11.596,-26.717
1.960,93.685,-52.031,-11.596,-26.717
1.965,93.685,-52.031,-11.596,-26.717
1.970,93.685,-52.031,-11.596,-26.717
1.975,93.685,-52.031,-11.596,-26.717
1.980,93.685,-52.031,-11.596,-26.717
1.985,93.685,-52.031,-11.596,-26.717
1.990,93.685,-52.031,-11.596,-26.717
1.995,93.685,-52.031,-11.596,-26.717
2.000,93.685,-52.031,-11.596,-26.717
2.005,93.743,-52.001,-11.596,-26.717
2.010,93.743,-52.001,-11.596,-26.717
2.015,93.743,-52.001,-11.596,-26.717
2.020,93.743,-52.001,-11.596,-26.717
2.025,93.743,-52.001,-11.596,-26.717
2.030,93.743,-52.001,-11.596,-26.717
2.035,93.743,-52.001,-11.596,-26.717
2.040,93.743,-52.001,-11.596,-26.717
2.045,93.743,-52.001,-11.596,-26.717
2.050,93.743,-52.001,-11.596,-26.717
2.055,93.729,-51.987,-11.596,-26.717
2.060,93.701,-51.959,-11.596,-26.717
2.065,93.766,-51.915,-11.596,-26.717
2.070,93.739,-51.874,-11.596,-26.717
2.075,93.711,-51.846,-11.596,-26.717
2.080,93.641,-51.790,-11.596,-26.717
2.085,93.613,-51.762,-11.596,-26.717
2.090,93.599,-51.734,-11.596,-26.717
2.095,93.572,-51.707,-11.596,-26.717
2.100,93.544,-51.679,-11.596,-26.717
2.105,93.544,-51.679,-11.596,-26.717
2.110,93.516,-51.651,-11.596,-26.717
2.115,93.488,-51.623,-11.596,-26.717
2.120,93.488,-51.623,-11.596,-26.717
2.125,93.446,-51.595,-11.596,-26.717
2.130,93.446,-51.595,-11.596,-26.717
2.135,93.446,-51.595,-11.596,-26.717
2.140,93.418,-51.568,-11.596,-26.717
2.145,93.405,-51.540,-11.596,-26.717
2.150,93.321,-51.456,-11.596,-26.717
2.155,93.130,-51.375,-11.596,-26.717
2.160,93.033,-51.263,-11.596,-26.717
2.165,92.922,-51.152,-11.596,-26.717
2.170,92.810,-51.041,-11.596,-26.717
2.175,92.699,-50.929,-11.596,-26.717
2.180,92.546,-50.776,-11.596,-26.717
2.185,92.349,-50.653,-11.596,-26.717
2.190,92.210,-50.514,-11.596,-26.717
2.195,92.071,-50.375,-11.596,-26.717
2.200,91.932,-50.222,-11.596,-26.717
2.205,91.749,-50.148,-11.596,-26.717
2.210,91.582,-49.981,-11.596,-26.717
2.215,91.371,-49.844,-11.596,-26.717
2.220,91.218,-49.677,-11.596,-26.717
2.225,91.001,-49.504,-11.596,-26.717
2.230,90.735,-49.311,-11.596,-26.717
2.235,90.496,-49.146,-11.596,-26.717
2.240,90.208,-48.989,-11.596,-26.717
2.245,89.956,-48.796,-11.596,-26.717
2.250,89.689,-48.603,-11.596,-26.717
2.255,89.423,-48.424,-11.596,-26.717
2.260,89.171,-48.231,-11.596,-26.717
2.265,88.827,-48.026,-11.596,-26.717
2.270,88.525,-47.806,-11.596,-26.717
2.275,88.258,-47.627,-11.596,-26.717
2.280,87.906,-47.408,-11.596,-26.717
2.285,87.576,-47.217,-11.596,-26.717
2.290,87.217,-47.040,-11.596,-26.717
2.295,86.851,-46.821,-11.596,-26.717
2.300,86.513,-46.638,-11.596,-26.717
2.305,86.076,-46.427,-11.596,-26.717
2.310,85.652,-46.260,-11.596,-26.717
2.315,85.201,-46.030,-11.596,-26.717
2.320,84.822,-45.797,-11.596,-26.717
2.325,84.343,-45.538,-11.596,-26.717
2.330,83.963,-45.292,-11.596,-26.717
2.335,83.498,-45.047,-11.596,-26.717
2.340,82.975,-44.832,-11.596,-26.717
2.345,82.439,-44.590,-11.596,-26.717
2.350,81.888,-44.347,-11.596,-26.717
2.355,81.351,-44.112,-11.596,-26.717
2.360,80.771,-43.913,-11.596,-26.717
2.365,80.234,-43.649,-11.596,-26.717
2.370,79.769,-43.390,-11.596,-26.717
2.375,79.233,-43.156,-11.596,-26.717
2.380,78.625,-42.929,-11.596,-26.717
2.385,77.917,-42.662,-11.596,-26.717
2.390,77.273,-42.394,-11.596,-26.717
2.395,76.665,-42.153,-11.596,-26.717
2.400,76.057,-41.884,-11.596,-26.717
2.405,75.399,-41.638,-11.596,-26.717
2.410,74.648,-41.387,-11.596,-26.717
2.415,73.954,-41.134,-11.596,-26.717
2.420,73.288,-40.874,-11.596,-26.717
2.425,72.609,-40.607,-11.596,-26.717
2.430,71.836,-40.356,-11.596,-26.717
2.435,71.071,-40.092,-11.596,-26.717
2.440,70.419,-39.825,-11.596,-26.717
2.445,69.667,-39.602,-11.596,-26.717
2.450,69.037,-39.341,-11.596,-26.717
2.455,68.278,-39.055,-11.596,-26.717
2.460,67.477,-38.806,-11.596,-26.717
2.465,66.675,-38.585,-11.596,-26.717
2.470,65.786,-38.352,-11.596,-26.717
2.475,64.964,-38.090,-11.596,-26.717
2.480,64.246,-37.845,-11.596,-26.717
2.485,63.415,-37.582,-11.596,-26.717
2.490,62.577,-37.363,-11.596,-26.717
2.495,61.796,-37.120,-11.596,-26.717
2.500,61.007,-36.885,-11.596,-26.717
2.505,60.132,-36.639,-11.596,-26.717
2.510,59.200,-36.414,-11.596,-26.717
2.515,58.340,-36.181,-11.596,-26.717
2.520,57.515,-35.940,-11.596,-26.717
2.525,56.575,-35.737,-11.596,-26.717
2.530,55.657,-35.520,-11.596,-26.717
2.535,54.833,-35.243,-11.596,-26.717
2.540,53.920,-35.054,-11.596,-26.717
2.545,52.973,-34.859,-11.596,-26.717
2.550,51.967,-34.701,-11.596,-26.717
2.555,51.077,-34.454,-11.596,-26.717
2.560,50.193,-34.307,-11.596,-26.717
2.565,49.259,-34.098,-11.596,-26.717
2.570,48.396,-33.915,-11.596,-26.717
2.575,47.369,-33.721,-11.596,-26.717
2.580,46.369,-33.556,-11.596,-26.717
2.585,45.463,-33.353,-11.596,-26.717
2.590,44.485,-33.187,-11.596,-26.717
2.595,43.571,-33.048,-11.596,-26.717
2.600,42.514,-32.863,-11.596,-26.717
2.605,41.614,-32.709,-11.596,-26.717
2.610,40.642,-32.572,-11.596,-26.717
2.615,39.613,-32.414,-11.596,-26.717
2.620,38.669,-32.283,-11.596,-26.717
2.625,37.739,-32.173,-11.596,-26.717
2.630,36.881,-32.067,-11.596,-26.717
2.635,35.907,-31.979,-11.596,-26.717
2.640,35.055,-31.923,-11.596,-26.717
2.645,34.095,-31.863,-11.596,-26.717
2.650,33.221,-31.807,-11.596,-26.717
2.655,32.504,-31.819,-11.596,-26.717
2.660,31.743,-31.852,-11.596,-26.717
2.665,30.974,-31.900,-11.596,-26.717
2.670,30.169,-31.963,-11.596,-26.717
2.675,29.422,-32.024,-11.596,-26.717
2.680,28.804,-32.068,-11.596,-26.717
2.685,28.186,-32.097,-11.596,-26.717
2.690,27.733,-32.145,-11.596,-26.717
2.695,27.173,-32.194,-11.596,-26.717
2.700,26.555,-32.224,-11.596,-26.717
