Time (s),End Effector X (mm),End Effector Y (mm),Target X (mm),Target Y (mm),Theta 1,Theta 2,Omega 1,Omega 2
0.000,-36.750,55.153,-62.463,76.085,-5771.000,-12224.000,-36.343,54.771
0.001,-36.968,55.342,-62.463,76.085,-5775.000,-12228.000,-36.775,55.171
0.002,-37.121,55.533,-62.463,76.085,-5778.000,-12232.000,-37.056,55.440
0.003,-37.274,55.702,-62.463,76.085,-5781.000,-12236.000,-37.181,55.588
0.004,-37.493,55.932,-62.463,76.085,-5785.000,-12240.000,-37.331,55.765
0.005,-37.711,56.121,-62.463,76.085,-5788.000,-12244.000,-37.546,55.979
0.006,-37.908,56.296,-62.463,76.085,-5793.000,-12248.000,-37.770,56.178
0.007,-38.083,56.465,-62.463,76.085,-5796.000,-12252.000,-37.963,56.349
0.008,-38.279,56.654,-62.463,76.085,-5800.000,-12256.000,-38.143,56.521
0.009,-38.454,56.782,-62.463,76.085,-5803.000,-12260.000,-38.327,56.689
0.010,-38.571,56.973,-62.463,76.085,-5806.000,-12264.000,-38.491,56.845
0.011,-38.812,57.162,-62.463,76.085,-5810.000,-12268.000,-38.649,57.021
0.012,-38.943,57.353,-62.463,76.085,-5813.000,-12272.000,-38.835,57.216
0.013,-39.104,57.536,-62.463,76.085,-5816.000,-12276.000,-39.002,57.407
0.014,-39.300,57.724,-62.463,76.085,-5820.000,-12280.000,-39.160,57.592
0.015,-39.475,57.852,-62.463,76.085,-5823.000,-12283.000,-39.345,57.761
0.016,-39.658,58.063,-62.463,76.085,-5827.000,-12287.000,-39.531,57.921
0.017,-39.833,58.232,-62.463,76.085,-5830.000,-12291.000,-39.709,58.102
0.018,-39.994,58.359,-62.463,76.085,-5833.000,-12294.000,-39.880,58.273
0.019,-40.146,58.550,-62.463,76.085,-5836.000,-12298.000,-40.040,58.422
0.020,-40.299,58.677,-62.463,76.085,-5839.000,-12301.000,-40.192,58.579
0.021,-40.438,58.868,-62.463,76.085,-5842.000,-12304.000,-40.340,58.740
0.022,-40.613,58.995,-62.463,76.085,-5845.000,-12308.000,-40.491,58.899
0.023,-40.796,59.165,-62.463,76.085,-5849.000,-12311.000,-40.663,59.052
0.024,-40.971,59.292,-62.463,76.085,-5852.000,-12314.000,-40.846,59.198
0.025,-41.110,59.419,-62.463,76.085,-5855.000,-12317.000,-41.013,59.333
0.026,-41.263,59.582,-62.463,76.085,-5858.000,-12320.000,-41.159,59.468
0.027,-41.424,59.710,108.393,-52.597,-5860.000,-12323.000,-41.308,59.615
0.028,-41.511,59.861,108.393,-52.597,-5863.000,-12326.000,-41.448,59.758
0.029,-41.672,59.988,108.393,-52.597,-5866.000,-12329.000,-41.567,59.896
0.030,-41.781,60.117,108.393,-52.597,-5868.000,-12332.000,-41.695,60.028
0.031,-41.920,60.280,108.393,-52.597,-5871.000,-12335.000,-41.827,60.165
0.032,-42.081,60.366,108.393,-52.597,-5874.000,-12337.000,-41.965,60.301
0.033,-42.212,60.515,108.393,-52.597,-5877.000,-12340.000,-42.116,60.419
0.034,-42.329,60.601,108.393,-52.597,-5879.000,-12342.000,-42.251,60.533
0.035,-42.482,60.744,108.393,-52.597,-5882.000,-12345.000,-42.377,60.649
0.036,-42.621,60.851,108.393,-52.597,-5885.000,-12347.000,-42.518,60.770
0.037,-42.731,60.939,108.393,-52.597,-5887.000,-12349.000,-42.655,60.880
0.038,-42.826,61.082,108.393,-52.597,-5889.000,-12352.000,-42.763,60.984
0.039,-42.935,61.170,108.393,-52.597,-5891.000,-12354.000,-42.860,61.100
0.040,-43.031,61.271,108.393,-52.597,-5893.000,-12356.000,-42.961,61.205
0.041,-43.140,61.359,108.393,-52.597,-5895.000,-12358.000,-43.064,61.296
0.042,-43.235,61.446,108.393,-52.597,-5897.000,-12360.000,-43.167,61.385
0.043,-43.374,61.567,108.393,-52.597,-5900.000,-12362.000,-43.277,61.482
0.044,-43.484,61.655,108.393,-52.597,-5902.000,-12363.000,-43.401,61.589
0.045,-43.644,61.713,108.393,-52.597,-5905.000,-12365.000,-43.534,61.676
0.046,-43.666,61.802,108.393,-52.597,-5906.000,-12367.000,-43.645,61.743
0.047,-43.783,61.904,108.393,-52.597,-5908.000,-12369.000,-43.717,61.827
0.048,-43.893,61.949,108.393,-52.597,-5910.000,-12370.000,-43.805,61.915
0.049,-43.988,62.051,108.393,-52.597,-5912.000,-12372.000,-43.919,61.987
0.050,-44.075,62.097,108.393,-52.597,-5914.000,-12373.000,-44.017,62.058
0.051,-44.171,62.198,108.393,-52.597,-5916.000,-12375.000,-44.105,62.132
0.052,-44.236,62.246,108.393,-52.597,-5917.000,-12376.000,-44.188,62.206
0.053,-44.302,62.327,108.393,-52.597,-5918.000,-12378.000,-44.259,62.275
0.054,-44.375,62.395,108.393,-52.597,-5920.000,-12379.000,-44.324,62.344
0.055,-44.485,62.419,108.393,-52.597,-5921.000,-12380.000,-44.406,62.403
0.056,-44.536,62.480,108.393,-52.597,-5923.000,-12381.000,-44.495,62.443
0.057,-44.580,62.520,108.393,-52.597,-5924.000,-12382.000,-44.556,62.487
0.058,-44.689,62.566,108.393,-52.597,-5926.000,-12383.000,-44.614,62.535
0.059,-44.719,62.628,108.393,-52.597,-5927.000,-12384.000,-44.689,62.584
0.060,-44.785,62.689,108.393,-52.597,-5928.000,-12385.000,-44.748,62.644
0.061,-44.828,62.715,108.393,-52.597,-5929.000,-12386.000,-44.795,62.697
0.062,-44.880,62.777,108.393,-52.597,-5930.000,-12387.000,-44.844,62.738
0.063,-44.989,62.837,108.393,-52.597,-5932.000,-12388.000,-44.911,62.790
0.064,-45.033,62.835,108.393,-52.597,-5933.000,-12388.000,-44.995,62.835
0.065,-45.084,62.882,108.393,-52.597,-5934.000,-12389.000,-45.056,62.857
0.066,-45.128,62.902,108.393,-52.597,-5935.000,-12389.000,-45.098,62.882
0.067,-45.172,62.942,108.393,-52.597,-5936.000,-12390.000,-45.141,62.916
0.068,-45.237,63.004,108.393,-52.597,-5937.000,-12391.000,-45.191,62.959
0.069,-45.237,63.004,108.393,-52.597,-5937.000,-12391.000,-45.235,63.001
0.070,-45.281,62.988,108.393,-52.597,-5938.000,-12391.000,-45.258,63.007
0.071,-45.333,63.028,108.393,-52.597,-5939.000,-12392.000,-45.291,63.002
0.072,-45.333,63.028,108.393,-52.597,-5939.000,-12392.000,-45.330,63.020
0.073,-45.398,63.047,108.393,-52.597,-5940.000,-12392.000,-45.359,63.038
0.074,-45.398,63.047,108.393,-52.597,-5940.000,-12392.000,-45.391,63.046
0.075,-45.442,63.046,108.393,-52.597,-5941.000,-12392.000,-45.418,63.049
0.076,-45.442,63.046,108.393,-52.597,-5941.000,-12392.000,-45.438,63.046
0.077,-45.442,63.046,108.393,-52.597,-5941.000,-12392.000,-45.446,63.045
0.078,-45.486,63.065,108.393,-52.597,-5942.000,-12392.000,-45.456,63.051
0.079,-45.486,63.065,108.393,-52.597,-5942.000,-12392.000,-45.480,63.063
0.080,-45.486,63.065,108.393,-52.597,-5942.000,-12392.000,-45.491,63.068
0.081,-45.486,63.065,108.393,-52.597,-5942.000,-12392.000,-45.487,63.066
0.082,-45.486,63.065,108.393,-52.597,-5942.000,-12392.000,-45.485,63.065
0.083,-45.486,63.065,108.393,-52.597,-5942.000,-12392.000,-45.486,63.065
0.084,-45.537,63.085,108.393,-52.597,-5943.000,-12392.000,-45.501,63.071
0.085,-45.537,63.085,108.393,-52.597,-5943.000,-12392.000,-45.531,63.083
0.086,-45.537,63.085,108.393,-52.597,-5943.000,-12392.000,-45.544,63.088
0.087,-45.537,63.085,108.393,-52.597,-5943.000,-12392.000,-45.538,63.086
0.088,-45.537,63.085,108.393,-52.597,-5943.000,-12392.000,-45.536,63.085
0.089,-45.537,63.085,108.393,-52.597,-5943.000,-12392.000,-45.537,63.085
0.090,-45.486,63.065,108.393,-52.597,-5942.000,-12392.000,-45.522,63.080
0.091,-45.486,63.065,108.393,-52.597,-5942.000,-12392.000,-45.492,63.068
0.092,-45.486,63.065,108.393,-52.597,-5942.000,-12392.000,-45.479,63.063
0.093,-45.486,63.065,108.393,-52.597,-5942.000,-12392.000,-45.485,63.065
0.094,-45.486,63.065,108.393,-52.597,-5942.000,-12392.000,-45.487,63.066
0.095,-45.486,63.065,108.393,-52.597,-5942.000,-12392.000,-45.486,63.066
0.096,-45.486,63.065,108.393,-52.597,-5942.000,-12392.000,-45.486,63.065
0.097,-45.486,63.065,108.393,-52.597,-5942.000,-12392.000,-45.486,63.065
0.098,-45.486,63.065,108.393,-52.597,-5942.000,-12392.000,-45.486,63.065
0.099,-45.486,63.065,108.393,-52.597,-5942.000,-12392.000,-45.486,63.065
0.100,-45.486,63.065,108.393,-52.597,-5942.000,-12392.000,-45.486,63.065
0.101,-45.486,63.065,108.393,-52.597,-5942.000,-12392.000,-45.486,63.065
0.102,-45.486,63.065,108.393,-52.597,-5942.000,-12392.000,-45.486,63.065
0.103,-45.486,63.065,108.393,-52.597,-5942.000,-12392.000,-45.486,63.065
0.104,-45.486,63.065,108.393,-52.597,-5942.000,-12392.000,-45.486,63.065
0.105,-45.486,63.065,108.393,-52.597,-5942.000,-12392.000,-45.486,63.065
0.106,-45.486,63.065,108.393,-52.597,-5942.000,-12392.000,-45.486,63.065
0.107,-45.486,63.065,108.393,-52.597,-5942.000,-12392.000,-45.486,63.065
0.108,-45.486,63.065,108.393,-52.597,-5942.000,-12392.000,-45.486,63.065
0.109,-45.486,63.065,108.393,-52.597,-5942.000,-12392.000,-45.486,63.065
0.110,-45.486,63.065,108.393,-52.597,-5942.000,-12392.000,-45.486,63.065
0.111,-45.486,63.065,108.393,-52.597,-5942.000,-12392.000,-45.486,63.065
0.112,-45.486,63.065,108.393,-52.597,-5942.000,-12392.000,-45.486,63.065
0.113,-45.486,63.065,108.393,-52.597,-5942.000,-12392.000,-45.486,63.065
0.114,-45.486,63.065,108.393,-52.597,-5942.000,-12392.000,-45.486,63.065
0.115,-45.486,63.065,108.393,-52.597,-5942.000,-12392.000,-45.486,63.065
0.116,-45.486,63.065,108.393,-52.597,-5942.000,-12392.000,-45.486,63.065
0.117,-45.486,63.065,108.393,-52.597,-5942.000,-12392.000,-45.486,63.065
0.118,-45.486,63.065,108.393,-52.597,-5942.000,-12392.000,-45.486,63.065
0.119,-45.486,63.065,108.393,-52.597,-5942.000,-12392.000,-45.486,63.065
0.120,-45.486,63.065,108.393,-52.597,-5942.000,-12392.000,-45.486,63.065
0.121,-45.486,63.065,108.393,-52.597,-5942.000,-12392.000,-45.486,63.065
0.122,-45.486,63.065,108.393,-52.597,-5942.000,-12392.000,-45.486,63.065
0.123,-45.486,63.065,108.393,-52.597,-5942.000,-12392.000,-45.486,63.065
0.124,-45.486,63.065,108.393,-52.597,-5942.000,-12392.000,-45.486,63.065
0.125,-45.486,63.065,108.393,-52.597,-5942.000,-12392.000,-45.486,63.065
0.126,-45.486,63.065,108.393,-52.597,-5942.000,-12392.000,-45.486,63.065
0.127,-45.486,63.065,108.393,-52.597,-5942.000,-12392.000,-45.486,63.065
0.128,-45.486,63.065,108.393,-52.597,-5942.000,-12392.000,-45.486,63.065
0.129,-45.486,63.065,108.393,-52.597,-5942.000,-12392.000,-45.486,63.065
0.130,-45.486,63.065,108.393,-52.597,-5942.000,-12392.000,-45.486,63.065
0.131,-45.486,63.065,108.393,-52.597,-5942.000,-12392.000,-45.486,63.065
0.132,-45.486,63.065,108.393,-52.597,-5942.000,-12392.000,-45.486,63.065
0.133,-45.486,63.065,108.393,-52.597,-5942.000,-12392.000,-45.486,63.065
0.134,-45.486,63.065,108.393,-52.597,-5942.000,-12392.000,-45.486,63.065
0.135,-45.486,63.065,108.393,-52.597,-5942.000,-12392.000,-45.486,63.065
0.136,-45.486,63.065,108.393,-52.597,-5942.000,-12392.000,-45.486,63.065
0.137,-45.442,63.046,108.393,-52.597,-5941.000,-12392.000,-45.473,63.060
0.138,-45.442,63.046,108.393,-52.597,-5941.000,-12392.000,-45.447,63.048
0.139,-45.442,63.046,108.393,-52.597,-5941.000,-12392.000,-45.437,63.043
0.140,-45.442,63.046,108.393,-52.597,-5941.000,-12392.000,-45.441,63.045
0.141,-45.398,63.047,108.393,-52.597,-5940.000,-12392.000,-45.430,63.047
0.142,-45.398,63.047,108.393,-52.597,-5940.000,-12392.000,-45.404,63.047
0.143,-45.398,63.047,108.393,-52.597,-5940.000,-12392.000,-45.393,63.048
0.144,-45.333,63.028,108.393,-52.597,-5939.000,-12392.000,-45.378,63.042
0.145,-45.333,63.028,108.393,-52.597,-5939.000,-12392.000,-45.342,63.030
0.146,-45.267,63.030,108.393,-52.597,-5938.000,-12392.000,-45.306,63.026
0.147,-45.267,63.030,108.393,-52.597,-5938.000,-12392.000,-45.274,63.029
0.148,-45.237,63.031,108.393,-52.597,-5937.000,-12392.000,-45.252,63.031
0.149,-45.237,63.031,108.393,-52.597,-5937.000,-12392.000,-45.240,63.031
0.150,-45.237,63.031,108.393,-52.597,-5937.000,-12392.000,-45.235,63.032
0.151,-45.172,63.026,108.393,-52.597,-5936.000,-12392.000,-45.218,63.030
0.152,-45.172,63.026,108.393,-52.597,-5936.000,-12392.000,-45.180,63.026
0.153,-45.128,63.027,108.393,-52.597,-5936.000,-12392.000,-45.151,63.025
0.154,-45.128,63.027,108.393,-52.597,-5935.000,-12392.000,-45.132,63.027
0.155,-45.128,63.027,108.393,-52.597,-5935.000,-12392.000,-45.124,63.028
0.156,-45.128,63.027,108.393,-52.597,-5935.000,-12392.000,-45.128,63.028
0.157,-45.128,63.027,108.393,-52.597,-5935.000,-12392.000,-45.129,63.027
0.158,-45.084,63.008,108.393,-52.597,-5934.000,-12392.000,-45.115,63.022
0.159,-45.084,63.008,108.393,-52.597,-5934.000,-12392.000,-45.090,63.010
0.160,-45.084,63.008,108.393,-52.597,-5934.000,-12392.000,-45.079,63.005
0.161,-45.084,63.008,108.393,-52.597,-5934.000,-12392.000,-45.084,63.007
0.162,-45.084,63.008,108.393,-52.597,-5934.000,-12392.000,-45.085,63.008
0.163,-45.084,63.008,108.393,-52.597,-5934.000,-12392.000,-45.085,63.008
0.164,-45.019,62.988,108.393,-52.597,-5933.000,-12392.000,-45.065,63.002
0.165,-45.019,62.988,108.393,-52.597,-5933.000,-12392.000,-45.027,62.990
0.166,-45.019,62.988,108.393,-52.597,-5933.000,-12392.000,-45.011,62.985
0.167,-45.019,62.988,108.393,-52.597,-5933.000,-12392.000,-45.018,62.987
0.168,-45.019,62.988,108.393,-52.597,-5933.000,-12392.000,-45.020,62.988
0.169,-45.019,62.988,108.393,-52.597,-5933.000,-12392.000,-45.019,62.988
0.170,-44.975,62.990,108.393,-52.597,-5932.000,-12392.000,-45.006,62.988
0.171,-44.975,62.990,108.393,-52.597,-5932.000,-12392.000,-44.980,62.989
0.172,-44.975,62.990,108.393,-52.597,-5932.000,-12392.000,-44.970,62.990
0.173,-44.975,62.990,108.393,-52.597,-5932.000,-12392.000,-44.974,62.990
0.174,-44.975,62.990,108.393,-52.597,-5932.000,-12392.000,-44.976,62.990
0.175,-44.975,62.990,108.393,-52.597,-5932.000,-12392.000,-44.975,62.990
0.176,-44.975,62.990,108.393,-52.597,-5932.000,-12392.000,-44.975,62.990
0.177,-44.975,62.990,108.393,-52.597,-5932.000,-12392.000,-44.975,62.990
0.178,-44.975,62.990,108.393,-52.597,-5932.000,-12392.000,-44.975,62.990
0.179,-44.975,62.990,108.393,-52.597,-5932.000,-12392.000,-44.975,62.990
0.180,-44.975,62.990,108.393,-52.597,-5932.000,-12392.000,-44.975,62.990
0.181,-44.975,62.990,108.393,-52.597,-5932.000,-12392.000,-44.975,62.990
0.182,-44.975,62.990,108.393,-52.597,-5932.000,-12392.000,-44.975,62.990
0.183,-44.975,62.990,108.393,-52.597,-5932.000,-12392.000,-44.975,62.990
0.184,-44.975,62.990,108.393,-52.597,-5932.000,-12392.000,-44.975,62.990
0.185,-44.975,62.990,108.393,-52.597,-5932.000,-12392.000,-44.975,62.990
0.186,-44.975,62.990,108.393,-52.597,-5932.000,-12392.000,-44.975,62.990
0.187,-44.975,62.990,108.393,-52.597,-5932.000,-12392.000,-44.975,62.990
0.188,-44.975,62.990,108.393,-52.597,-5932.000,-12392.000,-44.975,62.990
0.189,-44.975,62.990,108.393,-52.597,-5932.000,-12392.000,-44.975,62.990
0.190,-44.975,62.990,108.393,-52.597,-5932.000,-12392.000,-44.975,62.990
0.191,-44.975,62.990,108.393,-52.597,-5932.000,-12392.000,-44.975,62.990
0.192,-44.975,62.990,108.393,-52.597,-5932.000,-12392.000,-44.975,62.990
0.193,-44.975,62.990,108.393,-52.597,-5932.000,-12392.000,-44.975,62.990
0.194,-44.975,62.990,108.393,-52.597,-5932.000,-12392.000,-44.975,62.990
0.195,-44.975,62.990,108.393,-52.597,-5932.000,-12392.000,-44.975,62.990
0.196,-44.975,62.990,108.393,-52.597,-5932.000,-12392.000,-44.975,62.990
0.197,-44.975,62.990,108.393,-52.597,-5932.000,-12392.000,-44.975,62.990
0.198,-44.975,62.990,108.393,-52.597,-5932.000,-12392.000,-44.975,62.990
0.199,-44.975,62.990,108.393,-52.597,-5932.000,-12392.000,-44.975,62.990
0.200,-44.975,62.990,108.393,-52.597,-5932.000,-12392.000,-44.975,62.990
0.201,-44.975,62.990,108.393,-52.597,-5932.000,-12392.000,-44.975,62.990
0.202,-44.975,62.990,108.393,-52.597,-5932.000,-12392.000,-44.975,62.990
0.203,-44.975,62.990,108.393,-52.597,-5932.000,-12392.000,-44.975,62.990
0.204,-44.975,62.990,108.393,-52.597,-5932.000,-12392.000,-44.975,62.990
0.205,-44.975,62.990,108.393,-52.597,-5932.000,-12392.000,-44.975,62.990
0.206,-44.975,62.990,108.393,-52.597,-5932.000,-12392.000,-44.975,62.990
0.207,-44.975,62.990,108.393,-52.597,-5932.000,-12392.000,-44.975,62.990
0.208,-44.975,62.990,108.393,-52.597,-5932.000,-12392.000,-44.975,62.990
0.209,-44.975,62.990,108.393,-52.597,-5932.000,-12392.000,-44.975,62.990
0.210,-44.975,62.990,108.393,-52.597,-5932.000,-12392.000,-44.975,62.990
0.211,-44.975,62.990,108.393,-52.597,-5932.000,-12392.000,-44.975,62.990
0.212,-44.975,62.990,108.393,-52.597,-5932.000,-12392.000,-44.975,62.990
0.213,-44.975,62.990,108.393,-52.597,-5932.000,-12392.000,-44.975,62.990
0.214,-44.975,62.990,108.393,-52.597,-5932.000,-12392.000,-44.975,62.990
0.215,-44.975,62.990,108.393,-52.597,-5932.000,-12392.000,-44.975,62.990
0.216,-44.975,62.990,108.393,-52.597,-5932.000,-12392.000,-44.975,62.990
0.217,-44.975,62.990,108.393,-52.597,-5932.000,-12392.000,-44.975,62.990
0.218,-44.975,62.990,108.393,-52.597,-5932.000,-12392.000,-44.975,62.990
0.219,-44.975,62.990,108.393,-52.597,-5932.000,-12392.000,-44.975,62.990
0.220,-44.975,62.990,108.393,-52.597,-5932.000,-12392.000,-44.975,62.990
0.221,-44.975,62.990,108.393,-52.597,-5932.000,-12392.000,-44.975,62.990
0.222,-44.975,62.990,108.393,-52.597,-5932.000,-12392.000,-44.975,62.990
0.223,-44.975,62.990,108.393,-52.597,-5932.000,-12392.000,-44.975,62.990
0.224,-44.975,62.990,108.393,-52.597,-5932.000,-12392.000,-44.975,62.990
0.225,-44.975,62.990,108.393,-52.597,-5932.000,-12392.000,-44.975,62.990
0.226,-44.975,62.990,108.393,-52.597,-5932.000,-12392.000,-44.975,62.990
0.227,-44.975,62.990,108.393,-52.597,-5932.000,-12392.000,-44.975,62.990
0.228,-44.975,62.990,108.393,-52.597,-5932.000,-12392.000,-44.975,62.990
0.229,-44.975,62.990,108.393,-52.597,-5932.000,-12392.000,-44.975,62.990
0.230,-44.975,62.990,108.393,-52.597,-5932.000,-12392.000,-44.975,62.990
0.231,-44.975,62.990,108.393,-52.597,-5932.000,-12392.000,-44.975,62.990
0.232,-44.975,62.990,108.393,-52.597,-5932.000,-12392.000,-44.975,62.990
0.233,-44.975,62.990,108.393,-52.597,-5932.000,-12392.000,-44.975,62.990
0.234,-44.975,62.990,108.393,-52.597,-5932.000,-12392.000,-44.975,62.990
0.235,-44.975,62.990,108.393,-52.597,-5932.000,-12392.000,-44.975,62.990
0.236,-44.975,62.990,108.393,-52.597,-5932.000,-12392.000,-44.975,62.990
0.237,-44.975,62.990,108.393,-52.597,-5932.000,-12392.000,-44.975,62.990
0.238,-44.975,62.990,108.393,-52.597,-5932.000,-12392.000,-44.975,62.990
0.239,-44.975,62.990,108.393,-52.597,-5932.000,-12392.000,-44.975,62.990
0.240,-44.975,62.990,108.393,-52.597,-5932.000,-12392.000,-44.975,62.990
0.241,-44.975,62.990,108.393,-52.597,-5932.000,-12392.000,-44.975,62.990
0.242,-44.975,62.990,108.393,-52.597,-5932.000,-12392.000,-44.975,62.990
0.243,-44.975,62.990,108.393,-52.597,-5932.000,-12392.000,-44.975,62.990
0.244,-44.975,62.990,108.393,-52.597,-5932.000,-12392.000,-44.975,62.990
0.245,-44.975,62.990,108.393,-52.597,-5932.000,-12392.000,-44.975,62.990
0.246,-44.975,62.990,108.393,-52.597,-5932.000,-12392.000,-44.975,62.990
0.247,-44.975,62.990,108.393,-52.597,-5932.000,-12392.000,-44.975,62.990
0.248,-44.975,62.990,108.393,-52.597,-5932.000,-12392.000,-44.975,62.990
0.249,-44.975,62.990,108.393,-52.597,-5932.000,-12392.000,-44.975,62.990
0.250,-44.975,62.990,108.393,-52.597,-5932.000,-12392.000,-44.975,62.990
0.251,-44.975,62.990,108.393,-52.597,-5932.000,-12392.000,-44.975,62.990
0.252,-44.975,62.990,108.393,-52.597,-5932.000,-12392.000,-44.975,62.990
0.253,-44.975,62.990,108.393,-52.597,-5932.000,-12392.000,-44.975,62.990
0.254,-44.975,62.990,108.393,-52.597,-5932.000,-12392.000,-44.975,62.990
0.255,-44.975,62.990,108.393,-52.597,-5932.000,-12392.000,-44.975,62.990
0.256,-44.975,62.990,108.393,-52.597,-5932.000,-12392.000,-44.975,62.990
0.257,-44.975,62.990,108.393,-52.597,-5932.000,-12392.000,-44.975,62.990
0.258,-44.975,62.990,108.393,-52.597,-5932.000,-12392.000,-44.975,62.990
0.259,-44.975,62.990,108.393,-52.597,-5932.000,-12392.000,-44.975,62.990
0.260,-44.975,62.990,108.393,-52.597,-5932.000,-12392.000,-44.975,62.990
0.261,-44.975,62.990,108.393,-52.597,-5932.000,-12392.000,-44.975,62.990
0.262,-44.975,62.990,108.393,-52.597,-5932.000,-12392.000,-44.975,62.990
0.263,-44.975,62.990,108.393,-52.597,-5932.000,-12392.000,-44.975,62.990
0.264,-44.975,62.990,108.393,-52.597,-5932.000,-12392.000,-44.975,62.990
0.265,-44.975,62.990,108.393,-52.597,-5932.000,-12392.000,-44.975,62.990
0.266,-44.975,62.990,108.393,-52.597,-5932.000,-12392.000,-44.975,62.990
0.267,-44.975,62.990,108.393,-52.597,-5932.000,-12392.000,-44.975,62.990
0.268,-44.975,62.990,108.393,-52.597,-5932.000,-12392.000,-44.975,62.990
0.269,-44.975,62.990,108.393,-52.597,-5932.000,-12392.000,-44.975,62.990
0.270,-44.975,62.990,108.393,-52.597,-5932.000,-12392.000,-44.975,62.990
0.271,-44.975,62.990,108.393,-52.597,-5932.000,-12392.000,-44.975,62.990
