Time (s),End Effector X (mm),End Effector Y (mm),Target X (mm),Target Y (mm),Force X (N),Force Y (N)
0.000,-41.140,52.743,-62.463,76.085
0.005,-41.884,52.836,-62.463,76.085
0.010,-42.551,52.930,-62.463,76.085
0.015,-43.196,53.024,-62.463,76.085
0.020,-43.786,53.132,-62.463,76.085
0.025,-44.263,53.185,-62.463,76.085
0.030,-44.888,53.294,-62.463,76.085
0.035,-45.604,53.387,-62.463,76.085
0.040,-46.397,53.522,-62.463,76.085
0.045,-47.274,53.643,108.393,-52.597
0.050,-48.137,53.798,108.393,-52.597
0.055,-48.979,53.933,108.393,-52.597
0.060,-49.801,54.068,108.393,-52.597
0.065,-50.517,54.189,108.393,-52.597
0.070,-51.296,54.324,108.393,-52.597
0.075,-51.864,54.419,108.393,-52.597
0.080,-52.538,54.547,108.393,-52.597
0.085,-53.065,54.621,108.393,-52.597
0.090,-53.570,54.730,108.393,-52.597
0.095,-54.082,54.804,108.393,-52.597
0.100,-54.440,54.872,108.393,-52.597
0.105,-54.862,54.960,108.393,-52.597
0.110,-55.269,55.041,108.393,-52.597
0.115,-55.627,55.109,108.393,-52.597
0.120,-55.943,55.177,108.393,-52.597
0.125,-56.287,55.245,108.393,-52.597
0.130,-56.666,55.313,108.393,-52.597
0.135,-57.052,55.380,108.393,-52.597
0.140,-57.431,55.448,108.393,-52.597
0.145,-57.838,55.522,108.393,-52.597
0.150,-58.301,55.610,108.393,-52.597
0.155,-58.603,55.678,108.393,-52.597
0.160,-58.982,55.746,108.393,-52.597
0.165,-59.284,55.828,108.393,-52.597
0.170,-59.579,55.896,108.393,-52.597
0.175,-59.839,55.944,108.393,-52.597
0.180,-60.049,55.971,108.393,-52.597
0.185,-60.246,56.032,108.393,-52.597
0.190,-60.351,56.053,108.393,-52.597
0.195,-60.562,56.079,108.393,-52.597
0.200,-60.667,56.100,108.393,-52.597
0.205,-60.822,56.127,108.393,-52.597
0.210,-60.969,56.168,108.393,-52.597
0.215,-61.074,56.188,108.393,-52.597
0.220,-61.180,56.194,108.393,-52.597
0.225,-61.271,56.236,108.393,-52.597
0.230,-61.376,56.256,108.393,-52.597
0.235,-61.376,56.256,108.393,-52.597
0.240,-61.419,56.277,108.393,-52.597
0.245,-61.419,56.277,108.393,-52.597
0.250,-61.419,56.277,108.393,-52.597
0.255,-61.419,56.277,108.393,-52.597
0.260,-61.419,56.277,108.393,-52.597
0.265,-61.419,56.277,108.393,-52.597
0.270,-61.419,56.277,108.393,-52.597
0.275,-61.419,56.277,108.393,-52.597
0.280,-61.419,56.277,108.393,-52.597
0.285,-61.419,56.277,108.393,-52.597
0.290,-61.419,56.277,108.393,-52.597
0.295,-61.419,56.277,108.393,-52.597
0.300,-61.419,56.277,108.393,-52.597
0.305,-61.419,56.277,108.393,-52.597
0.310,-61.419,56.277,108.393,-52.597
0.315,-61.419,56.277,108.393,-52.597
0.320,-61.419,56.235,108.393,-52.597
0.325,-61.419,56.235,108.393,-52.597
0.330,-61.419,56.193,108.393,-52.597
0.335,-61.419,56.152,108.393,-52.597
0.340,-61.432,56.068,108.393,-52.597
0.345,-61.432,55.957,108.393,-52.597
0.350,-61.432,55.832,108.393,-52.597
0.355,-61.446,55.748,108.393,-52.597
0.360,-61.446,55.637,108.393,-52.597
0.365,-61.446,55.470,108.393,-52.597
0.370,-61.460,55.275,108.393,-52.597
0.375,-61.460,55.080,108.393,-52.597
0.380,-61.474,54.913,108.393,-52.597
0.385,-61.474,54.677,108.393,-52.597
0.390,-61.474,54.482,108.393,-52.597
0.395,-61.488,54.287,108.393,-52.597
0.400,-61.488,54.120,108.393,-52.597
0.405,-61.488,53.967,108.393,-52.597
0.410,-61.502,53.800,108.393,-52.597
0.415,-61.502,53.563,108.393,-52.597
0.420,-61.516,53.327,108.393,-52.597
0.425,-61.516,53.090,108.393,-52.597
0.430,-61.516,52.895,108.393,-52.597
0.435,-61.530,52.728,108.393,-52.597
0.440,-61.530,52.533,108.393,-52.597
0.445,-61.530,52.297,108.393,-52.597
0.450,-61.544,52.060,108.393,-52.597
0.455,-61.502,51.803,108.393,-52.597
0.460,-61.354,51.484,108.393,-52.597
0.465,-61.137,51.165,108.393,-52.597
0.470,-60.715,50.798,108.393,-52.597
0.475,-60.245,50.424,108.393,-52.597
0.480,-59.803,50.016,108.393,-52.597
0.485,-59.108,49.602,108.393,-52.597
0.490,-58.518,49.167,108.393,-52.597
0.495,-57.802,48.711,108.393,-52.597
0.500,-57.234,48.345,108.393,-52.597
0.505,-56.630,48.014,108.393,-52.597
0.510,-56.125,47.669,108.393,-52.597
0.515,-55.627,47.302,108.393,-52.597
0.520,-55.086,46.936,108.393,-52.597
0.525,-54.504,46.542,108.393,-52.597
0.530,-54.027,46.134,108.393,-52.597
0.535,-53.486,45.782,108.393,-52.597
0.540,-52.890,45.354,108.393,-52.597
0.545,-52.294,44.960,108.393,-52.597
0.550,-51.592,44.546,108.393,-52.597
0.555,-50.932,44.069,108.393,-52.597
0.560,-50.112,43.614,108.393,-52.597
0.565,-49.459,43.199,108.393,-52.597
0.570,-48.659,42.800,108.393,-52.597
0.575,-47.930,42.365,108.393,-52.597
0.580,-47.053,41.910,108.393,-52.597
0.585,-46.218,41.434,108.393,-52.597
0.590,-45.433,40.972,108.393,-52.597
0.595,-44.661,40.496,108.393,-52.597
0.600,-43.820,40.034,108.393,-52.597
0.605,-43.034,39.599,108.393,-52.597
0.610,-42.129,39.138,108.393,-52.597
0.615,-41.330,38.620,108.393,-52.597
0.620,-40.446,38.214,108.393,-52.597
0.625,-39.647,37.828,108.393,-52.597
0.630,-38.763,37.429,108.393,-52.597
0.635,-37.865,37.051,108.393,-52.597
0.640,-36.947,36.722,108.393,-52.597
0.645,-35.993,36.281,108.393,-52.597
0.650,-35.138,35.993,108.393,-52.597
0.655,-34.121,35.658,108.393,-52.597
0.660,-33.209,35.279,108.393,-52.597
0.665,-32.242,34.846,108.393,-52.597
0.670,-31.260,34.461,108.393,-52.597
0.675,-30.335,34.063,108.393,-52.597
0.680,-29.298,33.616,108.393,-52.597
0.685,-28.302,33.162,108.393,-52.597
0.690,-27.293,32.673,108.393,-52.597
0.695,-26.270,32.079,108.393,-52.597
0.700,-25.247,31.563,108.393,-52.597
0.705,-24.202,31.116,108.393,-52.597
0.710,-23.193,30.752,108.393,-52.597
0.715,-22.205,30.396,108.393,-52.597
0.720,-21.097,30.054,108.393,-52.597
0.725,-20.081,29.613,108.393,-52.597
0.730,-18.988,29.181,108.393,-52.597
0.735,-17.874,28.755,108.393,-52.597
0.740,-16.886,28.329,108.393,-52.597
0.745,-15.737,27.917,108.393,-52.597
0.750,-14.651,27.506,108.393,-52.597
0.755,-13.551,27.052,108.393,-52.597
0.760,-12.493,26.626,108.393,-52.597
0.765,-11.401,26.193,108.393,-52.597
0.770,-10.329,25.740,108.393,-52.597
0.775,-9.222,25.286,108.393,-52.597
0.780,-8.214,24.832,108.393,-52.597
0.785,-7.072,24.351,108.393,-52.597
0.790,-6.092,23.876,108.393,-52.597
0.795,-5.020,23.352,108.393,-52.597
0.800,-3.914,22.878,108.393,-52.597
0.805,-2.920,22.375,108.393,-52.597
0.810,-1.820,21.852,108.393,-52.597
0.815,-0.805,21.279,108.393,-52.597
0.820,0.273,20.749,108.393,-52.597
0.825,1.288,20.225,108.393,-52.597
0.830,2.359,19.736,108.393,-52.597
0.835,3.430,19.234,108.393,-52.597
0.840,4.388,18.765,108.393,-52.597
0.845,5.452,18.263,108.393,-52.597
0.850,6.439,17.780,108.393,-52.597
0.855,7.580,17.327,108.393,-52.597
0.860,8.623,16.859,108.393,-52.597
0.865,9.658,16.349,108.393,-52.597
0.870,10.715,15.881,108.393,-52.597
0.875,11.800,15.497,108.393,-52.597
0.880,12.801,15.113,108.393,-52.597
0.885,13.822,14.749,108.393,-52.597
0.890,14.844,14.365,108.393,-52.597
0.895,15.901,13.973,108.393,-52.597
0.900,16.950,13.547,108.393,-52.597
0.905,17.937,13.114,108.393,-52.597
0.910,18.986,12.764,108.393,-52.597
0.915,20.022,12.289,108.393,-52.597
0.920,21.099,11.856,108.393,-52.597
0.925,22.113,11.422,108.393,-52.597
0.930,23.177,11.045,108.393,-52.597
0.935,24.107,10.681,108.393,-52.597
0.940,25.107,10.352,108.393,-52.597
0.945,26.052,9.960,108.393,-52.597
0.950,27.087,9.603,108.393,-52.597
0.955,28.024,9.211,108.393,-52.597
0.960,28.996,8.855,108.393,-52.597
0.965,30.024,8.476,108.393,-52.597
0.970,30.940,8.105,108.393,-52.597
0.975,31.955,7.790,108.393,-52.597
0.980,32.885,7.419,108.393,-52.597
0.985,33.836,7.076,108.393,-52.597
0.990,34.766,6.704,108.393,-52.597
0.995,35.731,6.368,108.393,-52.597
1.000,36.661,6.032,108.393,-52.597
1.005,37.723,5.647,108.393,-52.597
1.010,38.590,5.304,108.393,-52.597
1.015,39.590,4.946,108.393,-52.597
1.020,40.597,4.596,108.393,-52.597
1.025,41.575,4.169,108.393,-52.597
1.030,42.547,3.819,108.393,-52.597
1.035,43.407,3.461,108.393,-52.597
1.040,44.371,3.076,108.393,-52.597
1.045,45.301,2.725,108.393,-52.597
1.050,46.133,2.339,108.393,-52.597
1.055,47.097,1.989,108.393,-52.597
1.060,47.936,1.645,108.393,-52.597
1.065,48.858,1.280,108.393,-52.597
1.070,49.781,0.930,108.393,-52.597
1.075,50.647,0.565,108.393,-52.597
1.080,51.493,0.193,108.393,-52.597
1.085,52.373,-0.158,108.393,-52.597
1.090,53.225,-0.482,108.393,-52.597
1.095,54.113,-0.770,108.393,-52.597
1.100,54.909,-1.093,108.393,-52.597
1.105,55.713,-1.445,108.393,-52.597
1.110,56.509,-1.796,108.393,-52.597
1.115,57.284,-2.183,108.393,-52.597
1.120,58.053,-2.535,108.393,-52.597
1.125,58.954,-2.913,108.393,-52.597
1.130,59.722,-3.265,108.393,-52.597
1.135,60.518,-3.659,108.393,-52.597
1.140,61.335,-3.996,108.393,-52.597
1.145,62.139,-4.306,108.393,-52.597
1.150,62.879,-4.700,108.393,-52.597
1.155,63.654,-5.037,108.393,-52.597
1.160,64.373,-5.431,108.393,-52.597
1.165,65.099,-5.805,108.393,-52.597
1.170,65.776,-6.185,108.393,-52.597
1.175,66.530,-6.565,108.393,-52.597
1.180,67.263,-6.945,108.393,-52.597
1.185,67.940,-7.360,108.393,-52.597
1.190,68.638,-7.733,108.393,-52.597
1.195,69.266,-8.135,108.393,-52.597
1.200,69.971,-8.557,108.393,-52.597
1.205,70.690,-8.965,108.393,-52.597
1.210,71.394,-9.394,108.393,-52.597
1.215,72.036,-9.887,108.393,-52.597
1.220,72.734,-10.337,108.393,-52.597
1.225,73.389,-10.829,108.393,-52.597
1.230,74.093,-11.328,108.393,-52.597
1.235,74.770,-11.793,108.393,-52.597
1.240,75.426,-12.271,108.393,-52.597
1.245,76.144,-12.770,108.393,-52.597
1.250,76.701,-13.305,108.393,-52.597
1.255,77.350,-13.805,108.393,-52.597
1.260,78.047,-14.311,108.393,-52.597
1.265,78.646,-14.811,108.393,-52.597
1.270,79.295,-15.289,108.393,-52.597
1.275,79.908,-15.789,108.393,-52.597
1.280,80.549,-16.310,108.393,-52.597
1.285,81.170,-16.837,108.393,-52.597
1.290,81.755,-17.372,108.393,-52.597
1.295,82.284,-17.942,108.393,-52.597
1.300,82.869,-18.463,108.393,-52.597
1.305,83.336,-18.985,108.393,-52.597
1.310,83.823,-19.513,108.393,-52.597
1.315,84.352,-20.035,108.393,-52.597
1.320,84.797,-20.591,108.393,-52.597
1.325,85.257,-21.134,108.393,-52.597
1.330,85.716,-21.691,108.393,-52.597
1.335,86.175,-22.233,108.393,-52.597
1.340,86.662,-22.818,108.393,-52.597
1.345,87.121,-23.361,108.393,-52.597
1.350,87.622,-23.945,108.393,-52.597
1.355,88.109,-24.544,108.393,-52.597
1.360,88.624,-25.142,108.393,-52.597
1.365,89.153,-25.740,108.393,-52.597
1.370,89.668,-26.311,108.393,-52.597
1.375,90.183,-26.881,108.393,-52.597
1.380,90.698,-27.480,108.393,-52.597
1.385,91.199,-28.036,108.393,-52.597
1.390,91.742,-28.635,108.393,-52.597
1.395,92.284,-29.219,108.393,-52.597
1.400,92.785,-29.776,108.393,-52.597
1.405,93.286,-30.333,108.393,-52.597
1.410,93.787,-30.861,108.393,-52.597
1.415,94.302,-31.418,108.393,-52.597
1.420,94.817,-31.975,108.393,-52.597
1.425,95.304,-32.517,108.393,-52.597
1.430,95.833,-33.046,108.393,-52.597
1.435,96.348,-33.589,108.393,-52.597
1.440,96.849,-34.090,108.393,-52.597
1.445,97.350,-34.619,-11.596,-26.717
1.450,97.837,-35.120,-11.596,-26.717
1.455,98.352,-35.635,-11.596,-26.717
1.460,98.880,-36.177,-11.596,-26.717
1.465,99.409,-36.706,-11.596,-26.717
1.470,99.938,-37.249,-11.596,-26.717
1.475,100.509,-37.819,-11.596,-26.717
1.480,101.051,-38.334,-11.596,-26.717
1.485,101.580,-38.863,-11.596,-26.717
1.490,102.151,-39.420,-11.596,-26.717
1.495,102.749,-40.004,-11.596,-26.717
1.500,103.334,-40.561,-11.596,-26.717
1.505,103.918,-41.104,-11.596,-26.717
1.510,104.489,-41.646,-11.596,-26.717
1.515,105.087,-42.217,-11.596,-26.717
1.520,105.658,-42.746,-11.596,-26.717
1.525,106.200,-43.247,-11.596,-26.717
1.530,106.743,-43.748,-11.596,-26.717
1.535,107.258,-44.221,-11.596,-26.717
1.540,107.759,-44.680,-11.596,-26.717
1.545,108.232,-45.097,-11.596,-26.717
1.550,108.705,-45.529,-11.596,-26.717
1.555,109.178,-45.960,-11.596,-26.717
1.560,109.665,-46.378,-11.596,-26.717
1.565,110.111,-46.781,-11.596,-26.717
1.570,110.528,-47.143,-11.596,-26.717
1.575,110.946,-47.505,-11.596,-26.717
1.580,111.335,-47.853,-11.596,-26.717
1.585,111.697,-48.159,-11.596,-26.717
1.590,112.045,-48.465,-11.596,-26.717
1.595,112.393,-48.757,-11.596,-26.717
1.600,112.713,-49.036,-11.596,-26.717
1.605,113.061,-49.328,-11.596,-26.717
1.610,113.255,-49.600,-11.596,-26.717
1.615,113.548,-49.850,-11.596,-26.717
1.620,113.665,-50.067,-11.596,-26.717
1.625,113.846,-50.311,-11.596,-26.717
1.630,113.845,-50.548,-11.596,-26.717
1.635,113.851,-50.793,-11.596,-26.717
1.640,113.822,-50.989,-11.596,-26.717
1.645,113.765,-51.192,-11.596,-26.717
1.650,113.632,-51.388,-11.596,-26.717
1.655,113.547,-51.578,-11.596,-26.717
1.660,113.448,-51.704,-11.596,-26.717
1.665,113.364,-51.809,-11.596,-26.717
1.670,113.231,-51.943,-11.596,-26.717
1.675,113.147,-52.006,-11.596,-26.717
1.680,113.133,-52.083,-11.596,-26.717
1.685,113.021,-52.153,-11.596,-26.717
1.690,112.978,-52.195,-11.596,-26.717
1.695,112.874,-52.252,-11.596,-26.717
1.700,112.818,-52.266,-11.596,-26.717
1.705,112.734,-52.301,-11.596,-26.717
1.710,112.664,-52.316,-11.596,-26.717
1.715,112.594,-52.344,-11.596,-26.717
1.720,112.524,-52.358,-11.596,-26.717
1.725,112.440,-52.393,-11.596,-26.717
1.730,112.391,-52.387,-11.596,-26.717
1.735,112.321,-52.401,-11.596,-26.717
1.740,112.251,-52.450,-11.596,-26.717
1.745,112.111,-52.479,-11.596,-26.717
1.750,112.111,-52.479,-11.596,-26.717
1.755,112.027,-52.493,-11.596,-26.717
1.760,111.957,-52.528,-11.596,-26.717
1.765,111.909,-52.522,-11.596,-26.717
1.770,111.839,-52.550,-11.596,-26.717
1.775,111.839,-52.550,-11.596,-26.717
1.780,111.769,-52.585,-11.596,-26.717
1.785,111.769,-52.585,-11.596,-26.717
1.790,111.769,-52.585,-11.596,-26.717
1.795,111.699,-52.599,-11.596,-26.717
1.800,111.699,-52.599,-11.596,-26.717
1.805,111.699,-52.599,-11.596,-26.717
1.810,111.699,-52.599,-11.596,-26.717
1.815,111.699,-52.599,-11.596,-26.717
1.820,111.699,-52.599,-11.596,-26.717
1.825,111.699,-52.599,-11.596,-26.717
1.830,111.699,-52.599,-11.596,-26.717
1.835,111.657,-52.572,-11.596,-26.717
1.840,111.559,-52.558,-11.596,-26.717
1.845,111.517,-52.530,-11.596,-26.717
1.850,111.434,-52.461,-11.596,-26.717
1.855,111.294,-52.419,-11.596,-26.717
1.860,111.183,-52.322,-11.596,-26.717
1.865,110.988,-52.260,-11.596,-26.717
1.870,110.793,-52.163,-11.596,-26.717
1.875,110.570,-52.031,-11.596,-26.717
1.880,110.458,-51.933,-11.596,-26.717
1.885,110.151,-51.858,-11.596,-26.717
1.890,109.928,-51.733,-11.596,-26.717
1.895,109.635,-51.657,-11.596,-26.717
1.900,109.412,-51.546,-11.596,-26.717
1.905,109.099,-51.422,-11.596,-26.717
1.910,108.806,-51.325,-11.596,-26.717
1.915,108.485,-51.236,-11.596,-26.717
1.920,108.157,-51.062,-11.596,-26.717
1.925,107.753,-50.959,-11.596,-26.717
1.930,107.404,-50.807,-11.596,-26.717
1.935,107.077,-50.668,-11.596,-26.717
1.940,106.686,-50.509,-11.596,-26.717
1.945,106.254,-50.357,-11.596,-26.717
1.950,105.891,-50.191,-11.596,-26.717
1.955,105.431,-50.046,-11.596,-26.717
1.960,104.922,-49.894,-11.596,-26.717
1.965,104.447,-49.722,-11.596,-26.717
1.970,103.840,-49.557,-11.596,-26.717
1.975,103.282,-49.398,-11.596,-26.717
1.980,102.668,-49.233,-11.596,-26.717
1.985,102.103,-49.047,-11.596,-26.717
1.990,101.447,-48.875,-11.596,-26.717
1.995,100.875,-48.668,-11.596,-26.717
2.000,100.185,-48.510,-11.596,-26.717
2.005,99.501,-48.310,-11.596,-26.717
2.010,98.810,-48.118,-11.596,-26.717
2.015,98.140,-47.918,-11.596,-26.717
2.020,97.435,-47.725,-11.596,-26.717
2.025,96.710,-47.540,-11.596,-26.717
2.030,95.879,-47.306,-11.596,-26.717
2.035,95.132,-47.127,-11.596,-26.717
2.040,94.372,-46.879,-11.596,-26.717
2.045,93.478,-46.680,-11.596,-26.717
2.050,92.564,-46.454,-11.596,-26.717
2.055,91.783,-46.178,-11.596,-26.717
2.060,90.966,-45.965,-11.596,-26.717
2.065,89.996,-45.718,-11.596,-26.717
2.070,89.074,-45.477,-11.596,-26.717
2.075,88.223,-45.223,-11.596,-26.717
2.080,87.253,-44.996,-11.596,-26.717
2.085,86.191,-44.785,-11.596,-26.717
2.090,85.186,-44.496,-11.596,-26.717
2.095,84.111,-44.242,-11.596,-26.717
2.100,83.127,-43.988,-11.596,-26.717
2.105,82.003,-43.693,-11.596,-26.717
2.110,80.893,-43.432,-11.596,-26.717
2.115,79.747,-43.179,-11.596,-26.717
2.120,78.644,-42.933,-11.596,-26.717
2.125,77.492,-42.721,-11.596,-26.717
2.130,76.409,-42.419,-11.596,-26.717
2.135,75.152,-42.194,-11.596,-26.717
2.140,73.986,-41.920,-11.596,-26.717
2.145,72.778,-41.654,-11.596,-26.717
2.150,71.492,-41.408,-11.596,-26.717
2.155,70.319,-41.183,-11.596,-26.717
2.160,68.915,-40.924,-11.596,-26.717
2.165,67.769,-40.664,-11.596,-26.717
2.170,66.428,-40.433,-11.596,-26.717
2.175,65.219,-40.187,-11.596,-26.717
2.180,63.857,-39.977,-11.596,-26.717
2.185,62.557,-39.774,-11.596,-26.717
2.190,61.194,-39.529,-11.596,-26.717
2.195,59.881,-39.263,-11.596,-26.717
2.200,58.455,-39.032,-11.596,-26.717
2.205,57.051,-38.767,-11.596,-26.717
2.210,55.730,-38.508,-11.596,-26.717
2.215,54.283,-38.312,-11.596,-26.717
2.220,52.913,-38.068,-11.596,-26.717
2.225,51.424,-37.858,-11.596,-26.717
2.230,50.054,-37.621,-11.596,-26.717
2.235,48.635,-37.334,-11.596,-26.717
2.240,47.132,-37.160,-11.596,-26.717
2.245,45.727,-36.887,-11.596,-26.717
2.250,44.224,-36.664,-11.596,-26.717
2.255,42.812,-36.413,-11.596,-26.717
2.260,41.428,-36.168,-11.596,-26.717
2.265,39.931,-35.945,-11.596,-26.717
2.270,38.526,-35.721,-11.596,-26.717
2.275,37.093,-35.505,-11.596,-26.717
2.280,35.680,-35.288,-11.596,-26.717
2.285,34.303,-35.058,-11.596,-26.717
2.290,32.813,-34.820,-11.596,-26.717
2.295,31.421,-34.625,-11.596,-26.717
2.300,30.072,-34.380,-11.596,-26.717
2.305,28.785,-34.163,-11.596,-26.717
2.310,27.582,-33.897,-11.596,-26.717
2.315,26.386,-33.665,-11.596,-26.717
2.320,25.386,-33.419,-11.596,-26.717
2.325,24.281,-33.152,-11.596,-26.717
2.330,23.309,-32.933,-11.596,-26.717
2.335,22.253,-32.687,-11.596,-26.717
2.340,21.386,-32.489,-11.596,-26.717
2.345,20.232,-32.271,-11.596,-26.717
2.350,19.218,-32.074,-11.596,-26.717
2.355,18.190,-31.835,-11.596,-26.717
2.360,17.106,-31.595,-11.596,-26.717
2.365,16.028,-31.419,-11.596,-26.717
2.370,15.014,-31.166,-11.596,-26.717
2.375,14.014,-30.955,-11.596,-26.717
2.380,12.866,-30.737,-11.596,-26.717
2.385,11.957,-30.511,-11.596,-26.717
2.390,10.893,-30.300,-11.596,-26.717
2.395,9.963,-30.088,-11.596,-26.717
2.400,8.858,-29.898,-11.596,-26.717
2.405,7.808,-29.666,-11.596,-26.717
2.410,6.814,-29.468,-11.596,-26.717
2.415,5.779,-29.285,-11.596,-26.717
2.420,4.848,-29.122,-11.596,-26.717
2.425,3.868,-28.903,-105.419,126.254
2.430,2.833,-28.699,-105.419,126.254
2.435,1.958,-28.508,-105.419,126.254
2.440,1.006,-28.331,-105.419,126.254
2.445,0.202,-28.181,-105.419,126.254
2.450,-0.722,-28.025,-105.419,126.254
2.455,-1.618,-27.855,-105.419,126.254
2.460,-2.395,-27.691,-105.419,126.254
2.465,-3.263,-27.542,-105.419,126.254
2.470,-3.914,-27.427,-105.419,126.254
2.475,-4.698,-27.326,-105.419,126.254
2.480,-5.398,-27.183,-105.419,126.254
2.485,-6.112,-27.060,-105.419,126.254
2.490,-6.749,-26.973,-105.419,126.254
2.495,-7.386,-26.857,-105.419,126.254
2.500,-7.932,-26.755,-105.419,126.254
2.505,-8.513,-26.660,-105.419,126.254
2.510,-9.080,-26.572,-105.419,126.254
2.515,-9.570,-26.470,-105.419,126.254
2.520,-9.934,-26.388,-105.419,126.254
2.525,-10.368,-26.306,-105.419,126.254
2.530,-10.844,-26.239,-105.419,126.254
2.535,-11.208,-26.157,-105.419,126.254
2.540,-11.481,-26.088,-105.419,126.254
2.545,-11.775,-26.055,-105.419,126.254
2.550,-11.978,-26.021,-105.419,126.254
2.555,-12.195,-25.973,-105.419,126.254
2.560,-12.342,-25.939,-105.419,126.254
2.565,-12.468,-25.918,-105.419,126.254
2.570,-12.559,-25.891,-105.419,126.254
2.575,-12.615,-25.891,-105.419,126.254
2.580,-12.615,-25.891,-105.419,126.254
2.585,-12.615,-25.891,-105.419,126.254
2.590,-12.720,-25.857,-105.419,126.254
2.595,-12.720,-25.857,-105.419,126.254
2.600,-12.720,-25.857,-105.419,126.254
2.605,-12.776,-25.857,-105.419,126.254
2.610,-12.965,-25.830,-105.419,126.254
2.615,-13.245,-25.838,-105.419,126.254
2.620,-13.638,-25.826,-105.419,126.254
2.625,-14.086,-25.807,-105.419,126.254
2.630,-14.555,-25.796,-105.419,126.254
2.635,-15.081,-25.756,-105.419,126.254
2.640,-15.459,-25.758,-105.419,126.254
2.645,-15.865,-25.732,-105.419,126.254
2.650,-16.166,-25.698,-105.419,126.254
2.655,-16.579,-25.700,-105.419,126.254
2.660,-16.902,-25.688,-105.419,126.254
2.665,-17.161,-25.661,-105.419,126.254
2.670,-17.371,-25.655,-105.419,126.254
2.675,-17.553,-25.649,-105.419,126.254
