Time (s),End Effector X (mm),End Effector Y (mm),Target X (mm),Target Y (mm),Force X (N),Force Y (N)
0.000,-68.771,42.539,-62.463,76.085
0.005,-68.640,42.967,-62.463,76.085
0.010,-68.538,43.372,-62.463,76.085
0.015,-68.393,43.827,-62.463,76.085
0.020,-68.219,44.235,-62.463,76.085
0.025,-68.161,44.702,-62.463,76.085
0.030,-68.038,45.094,-62.463,76.085
0.035,-67.915,45.521,-62.463,76.085
0.040,-67.770,45.948,-62.463,76.085
0.045,-67.712,46.360,-62.463,76.085
0.050,-67.589,46.765,-62.463,76.085
0.055,-67.466,47.234,-62.463,76.085
0.060,-67.386,47.646,108.393,-52.597
0.065,-67.315,48.093,108.393,-52.597
0.070,-67.191,48.499,108.393,-52.597
0.075,-67.112,48.910,108.393,-52.597
0.080,-66.989,49.338,108.393,-52.597
0.085,-66.852,49.807,108.393,-52.597
0.090,-66.772,50.204,108.393,-52.597
0.095,-66.657,50.610,108.393,-52.597
0.100,-66.512,51.037,108.393,-52.597
0.105,-66.389,51.451,108.393,-52.597
0.110,-66.295,51.876,108.393,-52.597
0.115,-66.180,52.240,108.393,-52.597
0.120,-66.035,52.667,108.393,-52.597
0.125,-65.964,53.037,108.393,-52.597
0.130,-65.819,53.464,108.393,-52.597
0.135,-65.747,53.848,108.393,-52.597
0.140,-65.610,54.234,108.393,-52.597
0.145,-65.531,54.603,108.393,-52.597
0.150,-65.459,54.987,108.393,-52.597
0.155,-65.300,55.331,108.393,-52.597
0.160,-65.229,55.715,108.393,-52.597
0.165,-65.105,56.058,108.393,-52.597
0.170,-65.034,56.359,108.393,-52.597
0.175,-64.889,56.661,108.393,-52.597
0.180,-64.831,56.989,108.393,-52.597
0.185,-64.694,57.227,108.393,-52.597
0.190,-64.615,57.549,108.393,-52.597
0.195,-64.478,57.844,108.393,-52.597
0.200,-64.398,58.124,108.393,-52.597
0.205,-64.261,58.426,108.393,-52.597
0.210,-64.203,58.662,108.393,-52.597
0.215,-64.132,58.943,108.393,-52.597
0.220,-64.052,59.201,108.393,-52.597
0.225,-63.959,59.495,108.393,-52.597
0.230,-63.901,59.754,108.393,-52.597
0.235,-63.822,59.970,108.393,-52.597
0.240,-63.729,60.209,108.393,-52.597
0.245,-63.693,60.440,108.393,-52.597
0.250,-63.613,60.656,108.393,-52.597
0.255,-63.534,60.831,108.393,-52.597
0.260,-63.506,61.026,108.393,-52.597
0.265,-63.448,61.223,108.393,-52.597
0.270,-63.369,61.398,108.393,-52.597
0.275,-63.355,61.565,108.393,-52.597
0.280,-63.276,61.698,108.393,-52.597
0.285,-63.218,61.867,108.393,-52.597
0.290,-63.138,62.014,108.393,-52.597
0.295,-63.138,62.125,108.393,-52.597
0.300,-63.081,62.272,108.393,-52.597
0.305,-63.067,62.384,108.393,-52.597
0.310,-62.987,62.489,108.393,-52.597
0.315,-62.944,62.574,108.393,-52.597
0.320,-62.930,62.700,108.393,-52.597
0.325,-62.864,62.749,108.393,-52.597
0.330,-62.799,62.835,108.393,-52.597
0.335,-62.785,62.877,108.393,-52.597
0.340,-62.741,62.898,108.393,-52.597
0.345,-62.676,62.920,108.393,-52.597
0.350,-62.676,62.962,108.393,-52.597
0.355,-62.632,62.984,108.393,-52.597
0.360,-62.632,62.984,108.393,-52.597
0.365,-62.588,62.986,108.393,-52.597
0.370,-62.536,62.966,108.393,-52.597
0.375,-62.471,62.946,108.393,-52.597
0.380,-62.471,62.946,108.393,-52.597
0.385,-62.427,62.962,108.393,-52.597
0.390,-62.362,62.942,108.393,-52.597
0.395,-62.310,62.922,108.393,-52.597
0.400,-62.288,62.902,108.393,-52.597
0.405,-62.288,62.902,108.393,-52.597
0.410,-62.223,62.904,108.393,-52.597
0.415,-62.171,62.884,108.393,-52.597
0.420,-62.171,62.884,108.393,-52.597
0.425,-62.127,62.886,108.393,-52.597
0.430,-62.062,62.880,108.393,-52.597
0.435,-61.996,62.860,108.393,-52.597
0.440,-61.966,62.862,108.393,-52.597
0.445,-61.923,62.842,108.393,-52.597
0.450,-61.857,62.823,108.393,-52.597
0.455,-61.857,62.823,108.393,-52.597
0.460,-61.806,62.803,108.393,-52.597
0.465,-61.762,62.805,108.393,-52.597
0.470,-61.696,62.799,108.393,-52.597
0.475,-61.601,62.781,108.393,-52.597
0.480,-61.557,62.761,108.393,-52.597
0.485,-61.462,62.743,108.393,-52.597
0.490,-61.331,62.703,108.393,-52.597
0.495,-61.235,62.699,108.393,-52.597
0.500,-61.148,62.659,108.393,-52.597
0.505,-60.987,62.643,108.393,-52.597
0.510,-60.848,62.597,108.393,-52.597
0.515,-60.687,62.581,108.393,-52.597
0.520,-60.512,62.557,108.393,-52.597
0.525,-60.373,62.512,108.393,-52.597
0.530,-60.147,62.490,108.393,-52.597
0.535,-59.913,62.434,108.393,-52.597
0.540,-59.642,62.370,108.393,-52.597
0.545,-59.372,62.328,108.393,-52.597
0.550,-59.138,62.286,108.393,-52.597
0.555,-58.868,62.209,108.393,-52.597
0.560,-58.620,62.167,108.393,-52.597
0.565,-58.459,62.129,108.393,-52.597
0.570,-58.349,62.125,108.393,-52.597
0.575,-58.254,62.085,108.393,-52.597
0.580,-58.145,62.067,108.393,-52.597
0.585,-58.049,62.049,108.393,-52.597
0.590,-57.910,62.026,108.393,-52.597
0.595,-57.684,61.968,108.393,-52.597
0.600,-57.436,61.926,108.393,-52.597
0.605,-57.166,61.884,108.393,-52.597
0.610,-56.800,61.824,108.393,-52.597
0.615,-56.486,61.762,108.393,-52.597
0.620,-56.282,61.705,108.393,-52.597
0.625,-56.033,61.663,108.393,-52.597
0.630,-55.807,61.619,108.393,-52.597
0.635,-55.559,61.577,108.393,-52.597
0.640,-55.215,61.517,108.393,-52.597
0.645,-54.901,61.456,108.393,-52.597
0.650,-54.587,61.394,108.393,-52.597
0.655,-54.317,61.338,108.393,-52.597
0.660,-54.017,61.276,108.393,-52.597
0.665,-53.660,61.216,108.393,-52.597
0.670,-53.280,61.157,108.393,-52.597
0.675,-52.980,61.095,108.393,-52.597
0.680,-52.623,61.035,108.393,-52.597
0.685,-52.200,60.955,108.393,-52.597
0.690,-51.834,60.896,108.393,-52.597
0.695,-51.411,60.816,108.393,-52.597
0.700,-51.068,60.756,108.393,-52.597
0.705,-50.579,60.692,108.393,-52.597
0.710,-50.221,60.632,108.393,-52.597
0.715,-49.812,60.553,108.393,-52.597
0.720,-49.302,60.455,108.393,-52.597
0.725,-48.827,60.377,108.393,-52.597
0.730,-48.360,60.272,108.393,-52.597
0.735,-47.820,60.210,108.393,-52.597
0.740,-47.309,60.126,108.393,-52.597
0.745,-46.791,59.987,108.393,-52.597
0.750,-46.251,59.821,108.393,-52.597
0.755,-45.718,59.676,108.393,-52.597
0.760,-44.981,59.431,108.393,-52.597
0.765,-44.441,59.224,108.393,-52.597
0.770,-43.952,59.077,108.393,-52.597
0.775,-43.333,58.872,108.393,-52.597
0.780,-42.705,58.667,108.393,-52.597
0.785,-41.910,58.424,108.393,-52.597
0.790,-41.247,58.220,108.393,-52.597
0.795,-40.627,57.966,108.393,-52.597
0.800,-40.007,57.761,108.393,-52.597
0.805,-39.300,57.557,108.393,-52.597
0.810,-38.571,57.273,108.393,-52.597
0.815,-37.864,57.000,108.393,-52.597
0.820,-37.078,56.709,108.393,-52.597
0.825,-36.422,56.421,108.393,-52.597
0.830,-35.635,56.130,108.393,-52.597
0.835,-34.783,55.842,108.393,-52.597
0.840,-34.018,55.551,108.393,-52.597
0.845,-33.232,55.260,108.393,-52.597
0.850,-32.541,55.015,108.393,-52.597
0.855,-31.740,54.747,108.393,-52.597
0.860,-30.896,54.500,108.393,-52.597
0.865,-29.920,54.215,108.393,-52.597
0.870,-29.106,53.904,108.393,-52.597
0.875,-28.270,53.574,108.393,-52.597
0.880,-27.411,53.224,108.393,-52.597
0.885,-26.430,52.827,108.393,-52.597
0.890,-25.514,52.415,108.393,-52.597
0.895,-24.642,52.037,108.393,-52.597
0.900,-23.625,51.657,108.393,-52.597
0.905,-22.572,51.179,108.393,-52.597
0.910,-21.585,50.658,108.393,-52.597
0.915,-20.576,50.200,108.393,-52.597
0.920,-19.597,49.701,108.393,-52.597
0.925,-18.639,49.199,108.393,-52.597
0.930,-17.580,48.676,108.393,-52.597
0.935,-16.507,48.135,108.393,-52.597
0.940,-15.435,47.581,108.393,-52.597
0.945,-14.290,46.939,108.393,-52.597
0.950,-13.212,46.365,108.393,-52.597
0.955,-12.155,45.776,108.393,-52.597
0.960,-11.018,45.128,108.393,-52.597
0.965,-9.912,44.449,108.393,-52.597
0.970,-8.770,43.842,108.393,-52.597
0.975,-7.526,43.168,108.393,-52.597
0.980,-6.391,42.485,108.393,-52.597
0.985,-5.265,41.785,108.393,-52.597
0.990,-4.037,41.110,108.393,-52.597
0.995,-2.774,40.430,108.393,-52.597
1.000,-1.619,39.767,108.393,-52.597
1.005,-0.451,39.091,108.393,-52.597
1.010,0.898,38.370,108.393,-52.597
1.015,2.159,37.682,108.393,-52.597
1.020,3.449,36.960,108.393,-52.597
1.025,4.623,36.255,108.393,-52.597
1.030,6.028,35.543,108.393,-52.597
1.035,7.200,34.817,108.393,-52.597
1.040,8.452,34.079,108.393,-52.597
1.045,9.833,33.289,108.393,-52.597
1.050,11.090,32.551,108.393,-52.597
1.055,12.290,31.818,108.393,-52.597
1.060,13.576,31.052,108.393,-52.597
1.065,14.919,30.324,108.393,-52.597
1.070,16.175,29.536,108.393,-52.597
1.075,17.436,28.750,108.393,-52.597
1.080,18.720,27.961,108.393,-52.597
1.085,19.996,27.131,108.393,-52.597
1.090,21.321,26.337,108.393,-52.597
1.095,22.495,25.567,108.393,-52.597
1.100,23.813,24.752,108.393,-52.597
1.105,25.086,23.956,108.393,-52.597
1.110,26.308,23.132,108.393,-52.597
1.115,27.667,22.295,108.393,-52.597
1.120,28.925,21.449,108.393,-52.597
1.125,30.276,20.703,108.393,-52.597
1.130,31.540,19.878,108.393,-52.597
1.135,32.768,19.072,108.393,-52.597
1.140,34.118,18.256,108.393,-52.597
1.145,35.409,17.445,108.393,-52.597
1.150,36.729,16.627,108.393,-52.597
1.155,38.048,15.809,108.393,-52.597
1.160,39.395,14.992,108.393,-52.597
1.165,40.663,14.186,108.393,-52.597
1.170,41.909,13.365,108.393,-52.597
1.175,43.191,12.559,108.393,-52.597
1.180,44.429,11.751,108.393,-52.597
1.185,45.645,10.900,108.393,-52.597
1.190,46.867,10.062,108.393,-52.597
1.195,48.097,9.289,108.393,-52.597
1.200,49.240,8.457,108.393,-52.597
1.205,50.361,7.616,108.393,-52.597
1.210,51.633,6.786,108.393,-52.597
1.215,52.702,5.929,108.393,-52.597
1.220,53.886,5.082,108.393,-52.597
1.225,55.027,4.255,108.393,-52.597
1.230,56.061,3.431,108.393,-52.597
1.235,57.166,2.602,108.393,-52.597
1.240,58.227,1.792,108.393,-52.597
1.245,59.203,1.001,108.393,-52.597
1.250,60.256,0.192,108.393,-52.597
1.255,61.389,-0.602,108.393,-52.597
1.260,62.406,-1.421,108.393,-52.597
1.265,63.611,-2.171,108.393,-52.597
1.270,64.722,-2.937,108.393,-52.597
1.275,65.718,-3.687,108.393,-52.597
1.280,66.878,-4.389,108.393,-52.597
1.285,67.995,-5.171,108.393,-52.597
1.290,68.947,-5.950,108.393,-52.597
1.295,70.020,-6.720,108.393,-52.597
1.300,71.115,-7.460,108.393,-52.597
1.305,72.095,-8.211,108.393,-52.597
1.310,73.111,-8.983,108.393,-52.597
1.315,74.168,-9.796,108.393,-52.597
1.320,75.176,-10.554,108.393,-52.597
1.325,76.184,-11.306,108.393,-52.597
1.330,77.106,-12.081,108.393,-52.597
1.335,78.012,-12.857,108.393,-52.597
1.340,78.919,-13.640,108.393,-52.597
1.345,79.932,-14.442,108.393,-52.597
1.350,80.875,-15.189,108.393,-52.597
1.355,81.737,-15.989,108.393,-52.597
1.360,82.608,-16.780,108.393,-52.597
1.365,83.592,-17.563,108.393,-52.597
1.370,84.482,-18.341,108.393,-52.597
1.375,85.438,-19.089,108.393,-52.597
1.380,86.329,-19.860,108.393,-52.597
1.385,87.183,-20.653,108.393,-52.597
1.390,88.138,-21.480,108.393,-52.597
1.395,88.921,-22.256,108.393,-52.597
1.400,89.781,-23.071,108.393,-52.597
1.405,90.636,-23.809,108.393,-52.597
1.410,91.433,-24.562,108.393,-52.597
1.415,92.223,-25.387,108.393,-52.597
1.420,93.105,-26.125,108.393,-52.597
1.425,93.874,-26.845,108.393,-52.597
1.430,94.677,-27.620,108.393,-52.597
1.435,95.417,-28.397,108.393,-52.597
1.440,96.156,-29.139,108.393,-52.597
1.445,96.910,-29.902,108.393,-52.597
1.450,97.649,-30.638,108.393,-52.597
1.455,98.403,-31.388,108.393,-52.597
1.460,99.126,-32.181,108.393,-52.597
1.465,99.808,-32.946,108.393,-52.597
1.470,100.490,-33.684,108.393,-52.597
1.475,101.186,-34.449,108.393,-52.597
1.480,101.896,-35.201,108.393,-52.597
1.485,102.605,-35.952,108.393,-52.597
1.490,103.315,-36.703,-11.596,-26.717
1.495,104.011,-37.427,-11.596,-26.717
1.500,104.693,-38.137,-11.596,-26.717
1.505,105.375,-38.819,-11.596,-26.717
1.510,106.015,-39.473,-11.596,-26.717
1.515,106.683,-40.141,-11.596,-26.717
1.520,107.337,-40.795,-11.596,-26.717
1.525,108.005,-41.463,-11.596,-26.717
1.530,108.687,-42.131,-11.596,-26.717
1.535,109.355,-42.771,-11.596,-26.717
1.540,110.023,-43.439,-11.596,-26.717
1.545,110.663,-44.065,-11.596,-26.717
1.550,111.303,-44.650,-11.596,-26.717
1.555,111.929,-45.248,-11.596,-26.717
1.560,112.569,-45.846,-11.596,-26.717
1.565,113.182,-46.417,-11.596,-26.717
1.570,113.808,-47.001,-11.596,-26.717
1.575,114.420,-47.558,-11.596,-26.717
1.580,115.005,-48.087,-11.596,-26.717
1.585,115.561,-48.588,-11.596,-26.717
1.590,116.118,-49.089,-11.596,-26.717
1.595,116.730,-49.631,-11.596,-26.717
1.600,117.259,-50.105,-11.596,-26.717
1.605,117.816,-50.592,-11.596,-26.717
1.610,118.372,-51.079,-11.596,-26.717
1.615,118.887,-51.524,-11.596,-26.717
1.620,119.275,-51.943,-11.596,-26.717
1.625,119.762,-52.361,-11.596,-26.717
1.630,120.106,-52.810,-11.596,-26.717
1.635,120.480,-53.238,-11.596,-26.717
1.640,120.790,-53.623,-11.596,-26.717
1.645,121.136,-54.023,-11.596,-26.717
1.650,121.454,-54.359,-11.596,-26.717
1.655,121.772,-54.708,-11.596,-26.717
1.660,122.005,-55.082,-11.596,-26.717
1.665,122.267,-55.376,-11.596,-26.717
1.670,122.538,-55.649,-11.596,-26.717
1.675,122.772,-55.915,-11.596,-26.717
1.680,123.007,-56.217,-11.596,-26.717
1.685,123.214,-56.456,-11.596,-26.717
1.690,123.393,-56.680,-11.596,-26.717
1.695,123.558,-56.905,-11.596,-26.717
1.700,123.737,-57.137,-11.596,-26.717
1.705,123.945,-57.318,-11.596,-26.717
1.710,124.168,-57.499,-11.596,-26.717
1.715,124.299,-57.632,-11.596,-26.717
1.720,124.452,-57.758,-11.596,-26.717
1.725,124.562,-57.927,-11.596,-26.717
1.730,124.615,-58.062,-11.596,-26.717
1.735,124.741,-58.173,-11.596,-26.717
1.740,124.780,-58.286,-11.596,-26.717
1.745,124.878,-58.370,-11.596,-26.717
1.750,124.975,-58.439,-11.596,-26.717
1.755,124.987,-58.525,-11.596,-26.717
1.760,125.057,-58.581,-11.596,-26.717
1.765,125.085,-58.608,-11.596,-26.717
1.770,125.126,-58.636,-11.596,-26.717
1.775,125.126,-58.636,-11.596,-26.717
1.780,125.126,-58.636,-11.596,-26.717
1.785,125.126,-58.636,-11.596,-26.717
1.790,125.126,-58.636,-11.596,-26.717
1.795,125.126,-58.636,-11.596,-26.717
1.800,125.126,-58.636,-11.596,-26.717
1.805,125.126,-58.636,-11.596,-26.717
1.810,125.126,-58.636,-11.596,-26.717
1.815,125.126,-58.636,-11.596,-26.717
1.820,125.126,-58.636,-11.596,-26.717
1.825,125.126,-58.636,-11.596,-26.717
1.830,125.126,-58.636,-11.596,-26.717
1.835,125.126,-58.636,-11.596,-26.717
1.840,125.085,-58.608,-11.596,-26.717
1.845,125.085,-58.608,-11.596,-26.717
1.850,125.057,-58.581,-11.596,-26.717
1.855,125.015,-58.553,-11.596,-26.717
1.860,124.987,-58.525,-11.596,-26.717
1.865,124.987,-58.525,-11.596,-26.717
1.870,124.959,-58.497,-11.596,-26.717
1.875,124.932,-58.483,-11.596,-26.717
1.880,124.904,-58.455,-11.596,-26.717
1.885,124.876,-58.427,-11.596,-26.717
1.890,124.763,-58.429,-11.596,-26.717
1.895,124.735,-58.402,-11.596,-26.717
1.900,124.621,-58.411,-11.596,-26.717
1.905,124.594,-58.398,-11.596,-26.717
1.910,124.381,-58.352,-11.596,-26.717
1.915,124.311,-58.310,-11.596,-26.717
1.920,124.212,-58.320,-11.596,-26.717
1.925,124.071,-58.294,-11.596,-26.717
1.930,123.944,-58.268,-11.596,-26.717
1.935,123.689,-58.238,-11.596,-26.717
1.940,123.512,-58.220,-11.596,-26.717
1.945,123.228,-58.248,-11.596,-26.717
1.950,122.952,-58.240,-11.596,-26.717
1.955,122.712,-58.202,-11.596,-26.717
1.960,122.441,-58.244,-11.596,-26.717
1.965,122.187,-58.192,-11.596,-26.717
1.970,122.060,-58.166,-11.596,-26.717
1.975,121.805,-58.128,-11.596,-26.717
1.980,121.678,-58.124,-11.596,-26.717
1.985,121.416,-58.130,-11.596,-26.717
1.990,121.161,-58.078,-11.596,-26.717
1.995,121.034,-58.052,-11.596,-26.717
2.000,120.893,-58.035,-11.596,-26.717
2.005,120.667,-58.011,-11.596,-26.717
2.010,120.384,-57.945,-11.596,-26.717
2.015,120.144,-57.893,-11.596,-26.717
2.020,119.875,-57.849,-11.596,-26.717
2.025,119.607,-57.798,-11.596,-26.717
2.030,119.275,-57.748,-11.596,-26.717
2.035,118.935,-57.720,-11.596,-26.717
2.040,118.661,-57.604,-11.596,-26.717
2.045,118.393,-57.561,-11.596,-26.717
2.050,117.989,-57.497,-11.596,-26.717
2.055,117.671,-57.447,-11.596,-26.717
2.060,117.290,-57.391,-11.596,-26.717
2.065,116.972,-57.342,-11.596,-26.717
2.070,116.519,-57.302,-11.596,-26.717
2.075,116.066,-57.240,-11.596,-26.717
2.080,115.726,-57.212,-11.596,-26.717
2.085,115.237,-57.180,-11.596,-26.717
2.090,114.806,-57.074,-11.596,-26.717
2.095,114.374,-57.035,-11.596,-26.717
2.100,113.907,-56.959,-11.596,-26.717
2.105,113.255,-56.895,-11.596,-26.717
2.110,112.653,-56.837,-11.596,-26.717
2.115,112.073,-56.771,-11.596,-26.717
2.120,111.485,-56.727,-11.596,-26.717
2.125,110.904,-56.634,-11.596,-26.717
2.130,110.252,-56.600,-11.596,-26.717
2.135,109.573,-56.470,-11.596,-26.717
2.140,109.028,-56.383,-11.596,-26.717
2.145,108.376,-56.319,-11.596,-26.717
2.150,107.653,-56.257,-11.596,-26.717
2.155,106.886,-56.231,-11.596,-26.717
2.160,106.232,-56.252,-11.596,-26.717
2.165,105.644,-56.195,-11.596,-26.717
2.170,105.020,-56.145,-11.596,-26.717
2.175,104.294,-56.146,-11.596,-26.717
2.180,103.541,-56.142,-11.596,-26.717
2.185,102.881,-56.086,-11.596,-26.717
2.190,102.128,-56.082,-11.596,-26.717
2.195,101.375,-56.078,-11.596,-26.717
2.200,100.707,-56.050,-11.596,-26.717
2.205,100.040,-55.994,-11.596,-26.717
2.210,99.265,-56.011,-11.596,-26.717
2.215,98.474,-56.065,-11.596,-26.717
2.220,97.748,-56.052,-11.596,-26.717
2.225,96.896,-56.022,-11.596,-26.717
2.230,96.093,-55.998,-11.596,-26.717
2.235,95.354,-55.958,-11.596,-26.717
2.240,94.464,-55.999,-11.596,-26.717
2.245,93.653,-55.975,-11.596,-26.717
2.250,92.770,-55.967,-11.596,-26.717
2.255,91.902,-55.994,-11.596,-26.717
2.260,91.047,-56.014,-11.596,-26.717
2.265,90.243,-56.018,-11.596,-26.717
2.270,89.360,-55.995,-11.596,-26.717
2.275,88.379,-55.961,-11.596,-26.717
2.280,87.482,-55.939,-11.596,-26.717
2.285,86.421,-55.956,-11.596,-26.717
2.290,85.418,-55.886,-11.596,-26.717
2.295,84.406,-55.896,-11.596,-26.717
2.300,83.373,-55.906,-11.596,-26.717
2.305,82.435,-55.814,-11.596,-26.717
2.310,81.445,-55.780,-11.596,-26.717
2.315,80.428,-55.704,-11.596,-26.717
2.320,79.345,-55.693,-11.596,-26.717
2.325,78.290,-55.661,-11.596,-26.717
2.330,77.421,-55.631,-11.596,-26.717
2.335,76.430,-55.690,-11.596,-26.717
2.340,75.468,-55.634,-11.596,-26.717
2.345,74.355,-55.646,-11.596,-26.717
2.350,73.264,-55.651,-11.596,-26.717
2.355,72.002,-55.615,-11.596,-26.717
2.360,71.054,-55.575,-11.596,-26.717
2.365,70.035,-55.519,-11.596,-26.717
2.370,68.922,-55.516,-11.596,-26.717
2.375,67.752,-55.508,-11.596,-26.717
2.380,66.504,-55.452,-11.596,-26.717
2.385,65.449,-55.384,-11.596,-26.717
2.390,64.250,-55.333,-11.596,-26.717
2.395,63.189,-55.210,-11.596,-26.717
2.400,61.876,-55.169,-11.596,-26.717
2.405,60.662,-55.191,-11.596,-26.717
2.410,59.412,-55.149,-11.596,-26.717
2.415,58.420,-55.089,-11.596,-26.717
2.420,57.143,-55.038,-11.596,-26.717
2.425,55.972,-54.968,-11.596,-26.717
2.430,54.607,-54.970,-11.596,-26.717
2.435,53.464,-54.912,-11.596,-26.717
2.440,52.314,-54.867,-11.596,-26.717
2.445,51.106,-54.867,-11.596,-26.717
2.450,49.862,-54.833,-11.596,-26.717
2.455,48.582,-54.798,-11.596,-26.717
2.460,47.489,-54.724,-11.596,-26.717
2.465,46.281,-54.696,-11.596,-26.717
2.470,45.180,-54.644,-11.596,-26.717
2.475,43.893,-54.612,-11.596,-26.717
2.480,42.685,-54.532,-11.596,-26.717
2.485,41.490,-54.481,-11.596,-26.717
2.490,40.368,-54.423,-11.596,-26.717
2.495,39.138,-54.345,-11.596,-26.717
2.500,38.087,-54.263,-11.596,-26.717
2.505,36.879,-54.172,-11.596,-26.717
2.510,35.762,-54.111,-11.596,-26.717
2.515,34.588,-54.089,-11.596,-26.717
2.520,33.479,-54.009,-11.596,-26.717
2.525,32.205,-53.925,-11.596,-26.717
2.530,31.239,-53.841,-11.596,-26.717
2.535,30.051,-53.755,-11.596,-26.717
2.540,29.042,-53.687,-11.596,-26.717
2.545,27.760,-53.603,-11.596,-26.717
2.550,26.751,-53.486,-11.596,-26.717
2.555,25.634,-53.426,-11.596,-26.717
2.560,24.603,-53.358,-11.596,-26.717
2.565,23.542,-53.325,-11.596,-26.717
2.570,22.510,-53.236,-11.596,-26.717
2.575,21.408,-53.098,-11.596,-26.717
2.580,20.420,-52.986,-11.596,-26.717
2.585,19.389,-52.869,-11.596,-26.717
2.590,18.393,-52.779,-11.596,-26.717
2.595,17.348,-52.647,-11.596,-26.717
2.600,16.309,-52.557,-11.596,-26.717
2.605,15.385,-52.452,-11.596,-26.717
2.610,14.354,-52.320,-11.596,-26.717
2.615,13.430,-52.171,-11.596,-26.717
2.620,12.427,-52.067,-11.596,-26.717
2.625,11.489,-51.911,-11.596,-26.717
2.630,10.507,-51.764,-11.596,-26.717
2.635,9.627,-51.615,-11.596,-26.717
2.640,8.824,-51.499,-11.596,-26.717
2.645,7.892,-51.385,-11.596,-26.717
2.650,7.127,-51.184,-11.596,-26.717
2.655,6.390,-51.017,-11.596,-26.717
2.660,5.573,-50.874,-11.596,-26.717
2.665,4.894,-50.712,-11.596,-26.717
2.670,4.214,-50.537,-11.596,-26.717
2.675,3.549,-50.376,-11.596,-26.717
