Time (s),End Effector X (mm),End Effector Y (mm),Target X (mm),Target Y (mm),Theta 1,Theta 2,Omega 1,Omega 2
0.000,-35.592,53.711,-62.463,76.085,-5748.000,-12191.000,-35.497,53.652
0.001,-35.941,54.152,-62.463,76.085,-5756.000,-12201.000,-35.698,53.842
0.002,-36.072,54.240,-62.463,76.085,-5758.000,-12203.000,-35.953,54.135
0.003,-36.182,54.341,-62.463,76.085,-5760.000,-12205.000,-36.130,54.312
0.004,-36.291,54.471,-62.463,76.085,-5762.000,-12208.000,-36.221,54.385
0.005,-36.378,54.558,-62.463,76.085,-5764.000,-12210.000,-36.312,54.486
0.006,-36.488,54.660,-62.463,76.085,-5766.000,-12212.000,-36.412,54.592
0.007,-36.597,54.747,-62.463,76.085,-5768.000,-12214.000,-36.518,54.685
0.008,-36.706,54.827,-62.463,76.085,-5770.000,-12216.000,-36.629,54.771
0.009,-36.793,54.936,-62.463,76.085,-5772.000,-12218.000,-36.732,54.860
0.010,-36.903,55.037,-62.463,76.085,-5774.000,-12220.000,-36.828,54.962
0.011,-36.968,55.105,-62.463,76.085,-5775.000,-12222.000,-36.919,55.058
0.012,-37.078,55.193,-62.463,76.085,-5777.000,-12224.000,-37.005,55.135
0.013,-37.165,55.322,-62.463,76.085,-5779.000,-12227.000,-37.098,55.228
0.014,-37.230,55.425,-62.463,76.085,-5780.000,-12229.000,-37.186,55.346
0.015,-37.340,55.491,-62.463,76.085,-5782.000,-12231.000,-37.266,55.448
0.016,-37.449,55.592,-62.463,76.085,-5784.000,-12233.000,-37.366,55.526
0.017,-37.493,55.682,-62.463,76.085,-5785.000,-12235.000,-37.461,55.614
0.018,-37.602,55.783,108.393,-52.597,-5787.000,-12237.000,-37.534,55.712
0.019,-37.646,55.851,108.393,-52.597,-5788.000,-12239.000,-37.607,55.803
0.020,-37.755,55.952,108.393,-52.597,-5790.000,-12241.000,-37.684,55.885
0.021,-37.864,56.082,108.393,-52.597,-5792.000,-12244.000,-37.780,55.986
0.022,-37.908,56.185,108.393,-52.597,-5793.000,-12246.000,-37.876,56.108
0.023,-38.017,56.273,108.393,-52.597,-5795.000,-12248.000,-37.949,56.215
0.024,-38.126,56.394,108.393,-52.597,-5797.000,-12251.000,-38.041,56.311
0.025,-38.192,56.483,108.393,-52.597,-5798.000,-12253.000,-38.144,56.415
0.026,-38.279,56.585,108.393,-52.597,-5799.000,-12255.000,-38.224,56.517
0.027,-38.345,56.716,108.393,-52.597,-5801.000,-12258.000,-38.296,56.623
0.028,-38.454,56.782,108.393,-52.597,-5803.000,-12260.000,-38.378,56.731
0.029,-38.484,56.927,108.393,-52.597,-5804.000,-12263.000,-38.458,56.832
0.030,-38.549,56.995,108.393,-52.597,-5805.000,-12265.000,-38.512,56.938
0.031,-38.637,57.160,108.393,-52.597,-5807.000,-12268.000,-38.572,57.051
0.032,-38.702,57.227,108.393,-52.597,-5808.000,-12270.000,-38.652,57.169
0.033,-38.746,57.350,108.393,-52.597,-5809.000,-12273.000,-38.718,57.274
0.034,-38.812,57.440,108.393,-52.597,-5810.000,-12275.000,-38.769,57.372
0.035,-38.855,57.563,108.393,-52.597,-5811.000,-12278.000,-38.821,57.478
0.036,-38.907,57.667,108.393,-52.597,-5812.000,-12280.000,-38.873,57.590
0.037,-38.929,57.798,108.393,-52.597,-5813.000,-12283.000,-38.913,57.707
0.038,-38.994,57.879,108.393,-52.597,-5814.000,-12285.000,-38.951,57.819
0.039,-39.060,57.989,108.393,-52.597,-5815.000,-12288.000,-39.008,57.917
0.040,-39.104,58.092,108.393,-52.597,-5816.000,-12290.000,-39.072,58.016
0.041,-39.169,58.160,108.393,-52.597,-5817.000,-12292.000,-39.126,58.112
0.042,-39.199,58.305,108.393,-52.597,-5818.000,-12295.000,-39.175,58.207
0.043,-39.265,58.373,108.393,-52.597,-5819.000,-12297.000,-39.222,58.315
0.044,-39.286,58.518,108.393,-52.597,-5820.000,-12300.000,-39.267,58.424
0.045,-39.352,58.607,108.393,-52.597,-5821.000,-12302.000,-39.310,58.536
0.046,-39.447,58.687,108.393,-52.597,-5823.000,-12304.000,-39.375,58.636
0.047,-39.513,58.818,108.393,-52.597,-5824.000,-12307.000,-39.462,58.728
0.048,-39.557,58.900,108.393,-52.597,-5825.000,-12309.000,-39.530,58.835
0.049,-39.557,58.969,108.393,-52.597,-5825.000,-12311.000,-39.560,58.926
0.050,-39.622,59.114,108.393,-52.597,-5826.000,-12314.000,-39.580,59.014
0.051,-39.630,59.204,108.393,-52.597,-5827.000,-12316.000,-39.616,59.130
0.052,-39.696,59.285,108.393,-52.597,-5828.000,-12318.000,-39.655,59.234
0.053,-39.696,59.411,108.393,-52.597,-5828.000,-12321.000,-39.690,59.325
0.054,-39.761,59.478,108.393,-52.597,-5829.000,-12323.000,-39.722,59.424
0.055,-39.791,59.582,108.393,-52.597,-5830.000,-12325.000,-39.763,59.515
0.056,-39.791,59.665,108.393,-52.597,-5830.000,-12327.000,-39.794,59.603
0.057,-39.791,59.735,108.393,-52.597,-5830.000,-12329.000,-39.796,59.687
0.058,-39.791,59.818,108.393,-52.597,-5830.000,-12331.000,-39.790,59.761
0.059,-39.791,59.902,108.393,-52.597,-5830.000,-12333.000,-39.790,59.841
0.060,-39.791,59.971,108.393,-52.597,-5830.000,-12335.000,-39.791,59.922
0.061,-39.747,60.035,108.393,-52.597,-5829.000,-12337.000,-39.778,59.992
0.062,-39.682,60.120,108.393,-52.597,-5828.000,-12339.000,-39.733,60.061
0.063,-39.616,60.164,108.393,-52.597,-5827.000,-12340.000,-39.665,60.130
0.064,-39.580,60.228,108.393,-52.597,-5826.000,-12342.000,-39.605,60.187
0.065,-39.515,60.291,108.393,-52.597,-5825.000,-12343.000,-39.557,60.244
0.066,-39.471,60.335,108.393,-52.597,-5824.000,-12345.000,-39.506,60.303
0.067,-39.362,60.400,108.393,-52.597,-5822.000,-12347.000,-39.437,60.357
0.068,-39.231,60.424,108.393,-52.597,-5820.000,-12348.000,-39.331,60.405
0.069,-39.209,60.488,108.393,-52.597,-5819.000,-12350.000,-39.227,60.447
0.070,-39.100,60.553,108.393,-52.597,-5817.000,-12351.000,-39.162,60.503
0.071,-39.034,60.597,108.393,-52.597,-5816.000,-12353.000,-39.091,60.565
0.072,-38.925,60.621,108.393,-52.597,-5814.000,-12354.000,-38.999,60.607
0.073,-38.837,60.686,108.393,-52.597,-5812.000,-12356.000,-38.903,60.643
0.074,-38.742,60.710,108.393,-52.597,-5810.000,-12357.000,-38.807,60.688
0.075,-38.633,60.734,108.393,-52.597,-5808.000,-12358.000,-38.710,60.722
0.076,-38.567,60.778,108.393,-52.597,-5807.000,-12359.000,-38.616,60.748
0.077,-38.480,60.780,108.393,-52.597,-5805.000,-12360.000,-38.536,60.775
0.078,-38.371,60.817,108.393,-52.597,-5803.000,-12361.000,-38.450,60.796
0.079,-38.261,60.863,108.393,-52.597,-5801.000,-12362.000,-38.342,60.827
0.080,-38.196,60.885,108.393,-52.597,-5800.000,-12363.000,-38.242,60.868
0.081,-38.043,60.889,108.393,-52.597,-5797.000,-12364.000,-38.145,60.890
0.082,-37.824,60.889,108.393,-52.597,-5793.000,-12364.000,-37.990,60.891
0.083,-37.642,60.895,108.393,-52.597,-5790.000,-12365.000,-37.780,60.890
0.084,-37.467,60.898,108.393,-52.597,-5786.000,-12366.000,-37.584,60.895
0.085,-37.270,60.960,108.393,-52.597,-5782.000,-12368.000,-37.407,60.917
0.086,-37.095,60.986,108.393,-52.597,-5779.000,-12369.000,-37.223,60.961
0.087,-36.899,60.992,108.393,-52.597,-5775.000,-12370.000,-37.036,60.992
0.088,-36.724,61.011,108.393,-52.597,-5772.000,-12371.000,-36.849,61.001
0.089,-36.541,61.079,108.393,-52.597,-5768.000,-12373.000,-36.668,61.029
0.090,-36.323,61.085,108.393,-52.597,-5764.000,-12374.000,-36.478,61.074
0.091,-36.170,61.130,108.393,-52.597,-5761.000,-12376.000,-36.283,61.106
0.092,-36.017,61.170,108.393,-52.597,-5758.000,-12377.000,-36.117,61.138
0.093,-35.864,61.174,108.393,-52.597,-5755.000,-12378.000,-35.971,61.171
0.094,-35.755,61.220,108.393,-52.597,-5753.000,-12379.000,-35.833,61.192
0.095,-35.580,61.224,108.393,-52.597,-5750.000,-12380.000,-35.698,61.216
0.096,-35.427,61.263,108.393,-52.597,-5747.000,-12380.000,-35.543,61.239
0.097,-35.178,61.229,108.393,-52.597,-5742.000,-12381.000,-35.352,61.250
0.098,-34.982,61.249,108.393,-52.597,-5738.000,-12382.000,-35.131,61.243
0.099,-34.720,61.193,108.393,-52.597,-5733.000,-12382.000,-34.899,61.227
0.100,-34.501,61.235,108.393,-52.597,-5729.000,-12383.000,-34.662,61.213
0.101,-34.297,61.199,108.393,-52.597,-5725.000,-12383.000,-34.437,61.214
0.102,-34.144,61.197,108.393,-52.597,-5722.000,-12383.000,-34.249,61.206
0.103,-33.947,61.161,108.393,-52.597,-5718.000,-12383.000,-34.080,61.184
0.104,-33.663,61.141,108.393,-52.597,-5713.000,-12383.000,-33.869,61.158
0.105,-33.466,61.119,108.393,-52.597,-5709.000,-12383.000,-33.617,61.133
0.106,-33.283,61.083,108.393,-52.597,-5705.000,-12383.000,-33.401,61.108
0.107,-33.043,61.047,108.393,-52.597,-5701.000,-12383.000,-33.209,61.075
0.108,-32.846,61.025,108.393,-52.597,-5697.000,-12383.000,-32.994,61.041
0.109,-32.693,61.009,108.393,-52.597,-5694.000,-12383.000,-32.797,61.019
0.110,-32.541,60.985,108.393,-52.597,-5691.000,-12383.000,-32.642,61.002
0.111,-32.322,60.971,108.393,-52.597,-5687.000,-12383.000,-32.477,60.983
0.112,-32.125,60.949,108.393,-52.597,-5683.000,-12383.000,-32.274,60.964
0.113,-31.921,60.949,108.393,-52.597,-5679.000,-12383.000,-32.063,60.950
0.114,-31.768,60.911,108.393,-52.597,-5676.000,-12383.000,-31.875,60.936
0.115,-31.549,60.911,108.393,-52.597,-5672.000,-12383.000,-31.698,60.916
0.116,-31.396,60.873,108.393,-52.597,-5669.000,-12383.000,-31.513,60.896
0.117,-31.243,60.857,108.393,-52.597,-5666.000,-12383.000,-31.345,60.873
0.118,-31.069,60.855,108.393,-52.597,-5663.000,-12383.000,-31.191,60.855
0.119,-30.937,60.818,108.393,-52.597,-5660.000,-12383.000,-31.034,60.842
0.120,-30.763,60.815,108.393,-52.597,-5657.000,-12383.000,-30.881,60.822
0.121,-30.610,60.799,108.393,-52.597,-5654.000,-12383.000,-30.723,60.807
0.122,-30.457,60.797,108.393,-52.597,-5651.000,-12383.000,-30.563,60.800
0.123,-30.304,60.760,108.393,-52.597,-5649.000,-12383.000,-30.411,60.785
0.124,-30.195,60.742,108.393,-52.597,-5646.000,-12383.000,-30.272,60.758
0.125,-30.085,60.745,108.393,-52.597,-5644.000,-12383.000,-30.157,60.740
0.126,-29.976,60.741,108.393,-52.597,-5642.000,-12383.000,-30.053,60.741
0.127,-29.954,60.722,108.393,-52.597,-5641.000,-12383.000,-29.971,60.737
0.128,-29.889,60.724,108.393,-52.597,-5640.000,-12383.000,-29.924,60.725
0.129,-29.845,60.704,108.393,-52.597,-5639.000,-12383.000,-29.881,60.715
0.130,-29.779,60.706,108.393,-52.597,-5638.000,-12383.000,-29.825,60.706
0.131,-29.736,60.708,108.393,-52.597,-5637.000,-12383.000,-29.768,60.704
0.132,-29.736,60.708,108.393,-52.597,-5637.000,-12383.000,-29.733,60.707
0.133,-29.670,60.702,108.393,-52.597,-5636.000,-12383.000,-29.711,60.706
0.134,-29.626,60.703,108.393,-52.597,-5635.000,-12383.000,-29.666,60.703
0.135,-29.583,60.684,108.393,-52.597,-5634.000,-12383.000,-29.612,60.697
0.136,-29.583,60.684,108.393,-52.597,-5634.000,-12383.000,-29.581,60.686
0.137,-29.517,60.686,108.393,-52.597,-5633.000,-12383.000,-29.559,60.682
0.138,-29.474,60.666,108.393,-52.597,-5632.000,-12383.000,-29.513,60.679
0.139,-29.364,60.670,108.393,-52.597,-5630.000,-12383.000,-29.440,60.670
0.140,-29.299,60.664,108.393,-52.597,-5629.000,-12383.000,-29.352,60.665
0.141,-29.168,60.648,108.393,-52.597,-5627.000,-12383.000,-29.255,60.660
0.142,-29.058,60.630,108.393,-52.597,-5624.000,-12383.000,-29.142,60.644
0.143,-28.884,60.628,108.393,-52.597,-5621.000,-12383.000,-29.005,60.629
0.144,-28.796,60.610,108.393,-52.597,-5619.000,-12383.000,-28.865,60.620
0.145,-28.687,60.592,108.393,-52.597,-5617.000,-12383.000,-28.754,60.606
0.146,-28.578,60.609,108.393,-52.597,-5615.000,-12383.000,-28.656,60.597
0.147,-28.468,60.592,108.393,-52.597,-5613.000,-12383.000,-28.547,60.600
0.148,-28.381,60.588,108.393,-52.597,-5611.000,-12383.000,-28.443,60.595
0.149,-28.337,60.589,108.393,-52.597,-5610.000,-12383.000,-28.365,60.587
0.150,-28.228,60.572,108.393,-52.597,-5608.000,-12383.000,-28.300,60.583
0.151,-28.162,60.573,108.393,-52.597,-5607.000,-12383.000,-28.217,60.575
0.152,-28.075,60.534,108.393,-52.597,-5605.000,-12383.000,-28.132,60.560
0.153,-28.010,60.550,108.393,-52.597,-5604.000,-12383.000,-28.057,60.543
0.154,-27.966,60.552,108.393,-52.597,-5603.000,-12383.000,-27.995,60.544
0.155,-27.900,60.532,108.393,-52.597,-5602.000,-12383.000,-27.944,60.547
0.156,-27.857,60.534,108.393,-52.597,-5601.000,-12383.000,-27.890,60.536
0.157,-27.747,60.474,108.393,-52.597,-5599.000,-12382.000,-27.822,60.513
0.158,-27.704,60.490,108.393,-52.597,-5598.000,-12382.000,-27.742,60.485
0.159,-27.660,60.470,108.393,-52.597,-5597.000,-12382.000,-27.683,60.475
0.160,-27.594,60.472,108.393,-52.597,-5596.000,-12382.000,-27.639,60.474
0.161,-27.485,60.454,108.393,-52.597,-5594.000,-12382.000,-27.566,60.465
0.162,-27.441,60.456,108.393,-52.597,-5593.000,-12382.000,-27.478,60.456
0.163,-27.376,60.458,108.393,-52.597,-5592.000,-12382.000,-27.414,60.454
0.164,-27.288,60.432,108.393,-52.597,-5590.000,-12382.000,-27.352,60.450
0.165,-27.245,60.434,108.393,-52.597,-5589.000,-12382.000,-27.280,60.436
0.166,-27.135,60.416,108.393,-52.597,-5587.000,-12382.000,-27.207,60.425
0.167,-27.026,60.420,108.393,-52.597,-5585.000,-12382.000,-27.111,60.419
0.168,-26.939,60.416,108.393,-52.597,-5583.000,-12382.000,-27.002,60.417
0.169,-26.830,60.398,108.393,-52.597,-5581.000,-12382.000,-26.903,60.411
0.170,-26.655,60.382,108.393,-52.597,-5578.000,-12382.000,-26.781,60.395
0.171,-26.567,60.378,108.393,-52.597,-5576.000,-12382.000,-26.638,60.380
0.172,-26.349,60.364,108.393,-52.597,-5573.000,-12382.000,-26.492,60.372
0.173,-26.218,60.340,108.393,-52.597,-5570.000,-12382.000,-26.325,60.358
0.174,-26.109,60.324,108.393,-52.597,-5567.000,-12382.000,-26.177,60.337
0.175,-25.890,60.308,108.393,-52.597,-5563.000,-12382.000,-26.039,60.318
0.176,-25.737,60.306,108.393,-52.597,-5560.000,-12382.000,-25.860,60.307
0.177,-25.584,60.290,108.393,-52.597,-5557.000,-12382.000,-25.685,60.300
0.178,-25.417,60.224,108.393,-52.597,-5554.000,-12381.000,-25.533,60.272
0.179,-25.264,60.208,108.393,-52.597,-5551.000,-12381.000,-25.375,60.226
0.180,-25.111,60.206,108.393,-52.597,-5548.000,-12381.000,-25.218,60.201
0.181,-25.002,60.188,108.393,-52.597,-5546.000,-12381.000,-25.079,60.198
0.182,-24.849,60.166,108.393,-52.597,-5543.000,-12380.000,-24.952,60.185
0.183,-24.784,60.146,108.393,-52.597,-5542.000,-12380.000,-24.835,60.161
0.184,-24.696,60.087,108.393,-52.597,-5540.000,-12379.000,-24.748,60.128
0.185,-24.652,60.047,108.393,-52.597,-5539.000,-12378.000,-24.685,60.080
0.186,-24.652,60.047,108.393,-52.597,-5539.000,-12378.000,-24.649,60.044
0.187,-24.652,60.047,108.393,-52.597,-5539.000,-12378.000,-24.647,60.041
0.188,-24.587,59.999,108.393,-52.597,-5538.000,-12377.000,-24.634,60.033
0.189,-24.587,59.999,108.393,-52.597,-5538.000,-12377.000,-24.596,60.006
0.190,-24.543,59.959,108.393,-52.597,-5537.000,-12376.000,-24.566,59.982
0.191,-24.478,59.961,108.393,-52.597,-5536.000,-12376.000,-24.528,59.963
0.192,-24.478,59.919,108.393,-52.597,-5536.000,-12375.000,-24.482,59.945
0.193,-24.420,59.880,108.393,-52.597,-5535.000,-12374.000,-24.452,59.912
0.194,-24.376,59.860,108.393,-52.597,-5534.000,-12374.000,-24.414,59.874
0.195,-24.333,59.812,108.393,-52.597,-5533.000,-12373.000,-24.363,59.843
0.196,-24.267,59.772,108.393,-52.597,-5532.000,-12372.000,-24.312,59.804
0.197,-24.223,59.774,108.393,-52.597,-5531.000,-12372.000,-24.257,59.772
0.198,-24.158,59.776,108.393,-52.597,-5530.000,-12372.000,-24.202,59.769
0.199,-24.114,59.714,108.393,-52.597,-5529.000,-12371.000,-24.147,59.758
0.200,-24.049,59.730,108.393,-52.597,-5528.000,-12371.000,-24.093,59.728
0.201,-24.005,59.732,108.393,-52.597,-5527.000,-12371.000,-24.038,59.722
0.202,-23.961,59.671,108.393,-52.597,-5526.000,-12371.000,-23.990,59.714
0.203,-23.917,59.673,108.393,-52.597,-5525.000,-12370.000,-23.948,59.681
0.204,-23.852,59.653,108.393,-52.597,-5524.000,-12370.000,-23.899,59.659
0.205,-23.808,59.655,108.393,-52.597,-5523.000,-12370.000,-23.842,59.654
0.206,-23.743,59.629,108.393,-52.597,-5522.000,-12369.000,-23.786,59.646
0.207,-23.685,59.567,108.393,-52.597,-5521.000,-12369.000,-23.728,59.614
0.208,-23.641,59.569,108.393,-52.597,-5520.000,-12368.000,-23.672,59.572
0.209,-23.598,59.549,108.393,-52.597,-5519.000,-12368.000,-23.626,59.555
0.210,-23.532,59.523,108.393,-52.597,-5518.000,-12367.000,-23.579,59.543
0.211,-23.488,59.484,108.393,-52.597,-5517.000,-12367.000,-23.522,59.514
0.212,-23.445,59.464,108.393,-52.597,-5516.000,-12366.000,-23.473,59.479
0.213,-23.379,59.466,108.393,-52.597,-5515.000,-12366.000,-23.425,59.461
0.214,-23.335,59.426,108.393,-52.597,-5514.000,-12365.000,-23.369,59.451
0.215,-23.270,59.420,108.393,-52.597,-5513.000,-12365.000,-23.314,59.430
0.216,-23.182,59.360,108.393,-52.597,-5511.000,-12364.000,-23.246,59.399
0.217,-23.139,59.362,108.393,-52.597,-5510.000,-12364.000,-23.173,59.366
0.218,-23.059,59.322,108.393,-52.597,-5509.000,-12363.000,-23.110,59.344
0.219,-22.950,59.318,108.393,-52.597,-5507.000,-12363.000,-23.031,59.325
0.220,-22.906,59.278,108.393,-52.597,-5506.000,-12362.000,-22.942,59.303
0.221,-22.819,59.260,108.393,-52.597,-5504.000,-12362.000,-22.872,59.277
0.222,-22.753,59.235,108.393,-52.597,-5503.000,-12361.000,-22.804,59.251
0.223,-22.644,59.175,108.393,-52.597,-5501.000,-12360.000,-22.720,59.217
0.224,-22.600,59.135,108.393,-52.597,-5500.000,-12359.000,-22.636,59.168
0.225,-22.499,59.089,108.393,-52.597,-5498.000,-12359.000,-22.563,59.119
0.226,-22.434,59.069,108.393,-52.597,-5497.000,-12358.000,-22.486,59.083
0.227,-22.324,58.990,108.393,-52.597,-5495.000,-12356.000,-22.399,59.043
0.228,-22.215,58.944,108.393,-52.597,-5493.000,-12355.000,-22.297,58.984
0.229,-22.171,58.904,108.393,-52.597,-5492.000,-12354.000,-22.203,58.929
0.230,-22.070,58.845,108.393,-52.597,-5490.000,-12353.000,-22.133,58.885
0.231,-22.005,58.797,108.393,-52.597,-5489.000,-12352.000,-22.058,58.834
0.232,-21.917,58.759,108.393,-52.597,-5487.000,-12351.000,-21.976,58.785
0.233,-21.852,58.719,108.393,-52.597,-5486.000,-12350.000,-21.899,58.746
0.234,-21.764,58.673,108.393,-52.597,-5484.000,-12349.000,-21.824,58.706
0.235,-21.641,58.572,108.393,-52.597,-5482.000,-12347.000,-21.730,58.645
0.236,-21.532,58.526,108.393,-52.597,-5480.000,-12346.000,-21.614,58.565
0.237,-21.422,58.488,108.393,-52.597,-5478.000,-12345.000,-21.498,58.508
0.238,-21.321,58.443,108.393,-52.597,-5476.000,-12344.000,-21.392,58.473
0.239,-21.212,58.383,108.393,-52.597,-5474.000,-12343.000,-21.289,58.427
0.240,-21.103,58.359,108.393,-52.597,-5472.000,-12342.000,-21.181,58.378
0.241,-21.059,58.299,108.393,-52.597,-5471.000,-12341.000,-21.090,58.337
0.242,-20.958,58.279,108.393,-52.597,-5469.000,-12341.000,-21.021,58.297
0.243,-20.848,58.255,108.393,-52.597,-5467.000,-12340.000,-20.933,58.268
0.244,-20.739,58.196,108.393,-52.597,-5465.000,-12339.000,-20.819,58.238
0.245,-20.630,58.158,108.393,-52.597,-5463.000,-12338.000,-20.706,58.190
0.246,-20.529,58.112,108.393,-52.597,-5461.000,-12337.000,-20.600,58.142
0.247,-20.376,58.096,108.393,-52.597,-5459.000,-12337.000,-20.483,58.108
0.248,-20.266,58.050,108.393,-52.597,-5456.000,-12336.000,-20.350,58.080
0.249,-20.165,57.991,108.393,-52.597,-5454.000,-12335.000,-20.232,58.037
0.250,-20.056,57.995,108.393,-52.597,-5452.000,-12335.000,-20.131,57.994
0.251,-19.903,57.951,108.393,-52.597,-5449.000,-12334.000,-20.013,57.973
0.252,-19.815,57.933,108.393,-52.597,-5447.000,-12334.000,-19.883,57.951
0.253,-19.692,57.887,108.393,-52.597,-5445.000,-12333.000,-19.771,57.918
0.254,-19.583,57.849,108.393,-52.597,-5443.000,-12332.000,-19.664,57.878
0.255,-19.496,57.831,108.393,-52.597,-5441.000,-12332.000,-19.557,57.843
0.256,-19.307,57.787,108.393,-52.597,-5438.000,-12331.000,-19.437,57.816
0.257,-19.198,57.728,108.393,-52.597,-5436.000,-12330.000,-19.287,57.773
0.258,-19.096,57.682,108.393,-52.597,-5434.000,-12330.000,-19.159,57.717
0.259,-18.943,57.688,108.393,-52.597,-5431.000,-12329.000,-19.048,57.681
0.260,-18.834,57.642,108.393,-52.597,-5429.000,-12328.000,-18.919,57.668
0.261,-18.689,57.584,108.393,-52.597,-5426.000,-12327.000,-18.787,57.632
0.262,-18.580,57.566,108.393,-52.597,-5424.000,-12327.000,-18.660,57.582
0.263,-18.471,57.542,108.393,-52.597,-5422.000,-12326.000,-18.544,57.553
0.264,-18.369,57.483,108.393,-52.597,-5420.000,-12325.000,-18.440,57.525
0.265,-18.216,57.481,108.393,-52.597,-5417.000,-12325.000,-18.324,57.488
0.266,-18.107,57.443,108.393,-52.597,-5415.000,-12324.000,-18.191,57.463
0.267,-18.028,57.361,108.393,-52.597,-5414.000,-12323.000,-18.079,57.422
0.268,-17.896,57.379,108.393,-52.597,-5411.000,-12323.000,-17.984,57.373
0.269,-17.773,57.319,108.393,-52.597,-5409.000,-12322.000,-17.868,57.349
0.270,-17.664,57.323,108.393,-52.597,-5407.000,-12322.000,-17.741,57.329
0.271,-17.577,57.319,108.393,-52.597,-5405.000,-12322.000,-17.636,57.317
