Time (s),End Effector X (mm),End Effector Y (mm),Target X (mm),Target Y (mm),Theta 1,Theta 2,Omega 1,Omega 2
0.000,-69.047,42.046,-62.463,76.085,-6365.000,-11757.000,0.000,0.000
0.005,-68.880,42.836,-62.463,76.085,-6362.000,-11778.000,0.000,0.000
0.010,-68.743,43.583,-62.463,76.085,-6360.000,-11797.000,0.000,0.000
0.015,-68.554,44.102,-62.463,76.085,-6357.000,-11811.000,0.000,0.000
0.020,-68.379,44.468,-62.463,76.085,-6354.000,-11821.000,0.000,0.000
0.025,-68.191,44.792,-62.463,76.085,-6351.000,-11830.000,0.000,0.000
0.030,-68.103,45.155,-62.463,76.085,-6349.000,-11840.000,0.000,0.000
0.035,-67.915,45.604,-62.463,76.085,-6346.000,-11852.000,0.000,0.000
0.040,-67.770,46.101,-62.463,76.085,-6344.000,-11865.000,0.000,0.000
0.045,-67.589,46.654,-62.463,76.085,-6341.000,-11880.000,0.000,0.000
0.050,-67.466,47.234,-62.463,76.085,-6339.000,-11894.000,0.000,0.000
0.055,-67.328,47.815,-62.463,76.085,-6337.000,-11909.000,0.000,0.000
0.060,-67.205,48.374,108.393,-52.597,-6335.000,-11924.000,0.000,0.000
0.065,-67.003,48.906,108.393,-52.597,-6332.000,-11939.000,0.000,0.000
0.070,-66.880,49.403,108.393,-52.597,-6330.000,-11952.000,0.000,0.000
0.075,-66.713,49.705,108.393,-52.597,-6327.000,-11961.000,0.000,0.000
0.080,-66.502,49.988,108.393,-52.597,-6324.000,-11969.000,0.000,0.000
0.085,-66.379,50.248,108.393,-52.597,-6322.000,-11976.000,0.000,0.000
0.090,-66.278,50.528,108.393,-52.597,-6320.000,-11984.000,0.000,0.000
0.095,-66.103,50.769,108.393,-52.597,-6317.000,-11991.000,0.000,0.000
0.100,-65.958,51.085,108.393,-52.597,-6315.000,-11999.000,0.000,0.000
0.105,-65.791,51.367,108.393,-52.597,-6312.000,-12007.000,0.000,0.000
0.110,-65.668,51.647,108.393,-52.597,-6310.000,-12015.000,0.000,0.000
0.115,-65.479,51.971,108.393,-52.597,-6307.000,-12024.000,0.000,0.000
0.120,-65.356,52.273,108.393,-52.597,-6305.000,-12032.000,0.000,0.000
0.125,-65.167,52.597,108.393,-52.597,-6302.000,-12041.000,0.000,0.000
0.130,-65.000,52.913,108.393,-52.597,-6299.000,-12050.000,0.000,0.000
0.135,-64.746,53.281,108.393,-52.597,-6295.000,-12059.000,0.000,0.000
0.140,-64.579,53.583,108.393,-52.597,-6292.000,-12068.000,0.000,0.000
0.145,-64.390,53.887,108.393,-52.597,-6289.000,-12077.000,0.000,0.000
0.150,-64.202,54.211,108.393,-52.597,-6286.000,-12086.000,0.000,0.000
0.155,-64.100,54.505,108.393,-52.597,-6284.000,-12094.000,0.000,0.000
0.160,-63.912,54.746,108.393,-52.597,-6281.000,-12101.000,0.000,0.000
0.165,-63.723,54.986,108.393,-52.597,-6278.000,-12108.000,0.000,0.000
0.170,-63.504,55.221,108.393,-52.597,-6274.000,-12115.000,0.000,0.000
0.175,-63.316,55.461,108.393,-52.597,-6271.000,-12122.000,0.000,0.000
0.180,-63.097,55.654,108.393,-52.597,-6267.000,-12128.000,0.000,0.000
0.185,-62.908,55.867,108.393,-52.597,-6264.000,-12134.000,0.000,0.000
0.190,-62.742,56.065,108.393,-52.597,-6261.000,-12140.000,0.000,0.000
0.195,-62.567,56.236,108.393,-52.597,-6258.000,-12145.000,0.000,0.000
0.200,-62.400,56.449,108.393,-52.597,-6255.000,-12151.000,0.000,0.000
0.205,-62.225,56.606,108.393,-52.597,-6252.000,-12156.000,0.000,0.000
0.210,-62.072,56.777,108.393,-52.597,-6249.000,-12161.000,0.000,0.000
0.215,-61.897,56.864,108.393,-52.597,-6246.000,-12164.000,0.000,0.000
0.220,-61.709,56.993,108.393,-52.597,-6243.000,-12168.000,0.000,0.000
0.225,-61.556,57.081,108.393,-52.597,-6240.000,-12171.000,0.000,0.000
0.230,-61.381,57.168,108.393,-52.597,-6237.000,-12174.000,0.000,0.000
0.235,-61.242,57.214,108.393,-52.597,-6234.000,-12176.000,0.000,0.000
0.240,-61.133,57.238,108.393,-52.597,-6232.000,-12177.000,0.000,0.000
0.245,-60.958,57.283,108.393,-52.597,-6229.000,-12179.000,0.000,0.000
0.250,-60.914,57.305,108.393,-52.597,-6228.000,-12180.000,0.000,0.000
0.255,-60.805,57.279,108.393,-52.597,-6226.000,-12180.000,0.000,0.000
0.260,-60.688,57.261,108.393,-52.597,-6224.000,-12180.000,0.000,0.000
0.265,-60.578,57.243,108.393,-52.597,-6222.000,-12180.000,0.000,0.000
0.270,-60.505,57.204,108.393,-52.597,-6220.000,-12180.000,0.000,0.000
0.275,-60.374,57.200,108.393,-52.597,-6218.000,-12180.000,0.000,0.000
0.280,-60.330,57.202,108.393,-52.597,-6217.000,-12180.000,0.000,0.000
0.285,-60.213,57.162,108.393,-52.597,-6215.000,-12180.000,0.000,0.000
0.290,-60.125,57.144,108.393,-52.597,-6213.000,-12180.000,0.000,0.000
0.295,-60.016,57.118,108.393,-52.597,-6211.000,-12180.000,0.000,0.000
0.300,-59.899,57.100,108.393,-52.597,-6209.000,-12180.000,0.000,0.000
0.305,-59.855,57.102,108.393,-52.597,-6208.000,-12180.000,0.000,0.000
0.310,-59.746,57.062,108.393,-52.597,-6206.000,-12180.000,0.000,0.000
0.315,-59.651,57.058,108.393,-52.597,-6204.000,-12180.000,0.000,0.000
0.320,-59.585,57.038,108.393,-52.597,-6203.000,-12180.000,0.000,0.000
0.325,-59.476,57.020,108.393,-52.597,-6201.000,-12180.000,0.000,0.000
0.330,-59.410,57.000,108.393,-52.597,-6200.000,-12180.000,0.000,0.000
0.335,-59.402,56.980,108.393,-52.597,-6199.000,-12180.000,0.000,0.000
0.340,-59.337,56.996,108.393,-52.597,-6198.000,-12180.000,0.000,0.000
0.345,-59.228,56.978,108.393,-52.597,-6196.000,-12180.000,0.000,0.000
0.350,-59.162,56.958,108.393,-52.597,-6195.000,-12180.000,0.000,0.000
0.355,-59.067,56.941,108.393,-52.597,-6193.000,-12180.000,0.000,0.000
0.360,-58.958,56.915,108.393,-52.597,-6191.000,-12180.000,0.000,0.000
0.365,-58.914,56.917,108.393,-52.597,-6190.000,-12180.000,0.000,0.000
0.370,-58.797,56.877,108.393,-52.597,-6188.000,-12180.000,0.000,0.000
0.375,-58.687,56.859,108.393,-52.597,-6186.000,-12180.000,0.000,0.000
0.380,-58.600,56.841,108.393,-52.597,-6184.000,-12180.000,0.000,0.000
0.385,-58.483,56.837,108.393,-52.597,-6182.000,-12180.000,0.000,0.000
0.390,-58.374,56.797,108.393,-52.597,-6180.000,-12180.000,0.000,0.000
0.395,-58.300,56.779,108.393,-52.597,-6178.000,-12180.000,0.000,0.000
0.400,-58.169,56.775,108.393,-52.597,-6176.000,-12180.000,0.000,0.000
0.405,-58.060,56.735,108.393,-52.597,-6174.000,-12180.000,0.000,0.000
0.410,-57.964,56.717,108.393,-52.597,-6172.000,-12180.000,0.000,0.000
0.415,-57.921,56.698,108.393,-52.597,-6171.000,-12180.000,0.000,0.000
0.420,-57.811,56.693,108.393,-52.597,-6169.000,-12180.000,0.000,0.000
0.425,-57.651,56.656,108.393,-52.597,-6166.000,-12180.000,0.000,0.000
0.430,-57.541,56.638,108.393,-52.597,-6164.000,-12180.000,0.000,0.000
0.435,-57.432,56.634,108.393,-52.597,-6162.000,-12180.000,0.000,0.000
0.440,-57.337,56.594,108.393,-52.597,-6160.000,-12180.000,0.000,0.000
0.445,-57.227,56.576,108.393,-52.597,-6158.000,-12180.000,0.000,0.000
0.450,-57.118,56.558,108.393,-52.597,-6156.000,-12180.000,0.000,0.000
0.455,-57.023,56.532,108.393,-52.597,-6154.000,-12180.000,0.000,0.000
0.460,-56.848,56.516,108.393,-52.597,-6151.000,-12180.000,0.000,0.000
0.465,-56.775,56.476,108.393,-52.597,-6149.000,-12180.000,0.000,0.000
0.470,-56.709,56.492,108.393,-52.597,-6148.000,-12180.000,0.000,0.000
0.475,-56.534,56.454,108.393,-52.597,-6145.000,-12180.000,0.000,0.000
0.480,-56.469,56.434,108.393,-52.597,-6144.000,-12180.000,0.000,0.000
0.485,-56.395,56.417,108.393,-52.597,-6142.000,-12180.000,0.000,0.000
0.490,-56.286,56.412,108.393,-52.597,-6140.000,-12180.000,0.000,0.000
0.495,-56.155,56.373,108.393,-52.597,-6138.000,-12180.000,0.000,0.000
0.500,-56.059,56.355,108.393,-52.597,-6136.000,-12180.000,0.000,0.000
0.505,-55.906,56.331,108.393,-52.597,-6133.000,-12180.000,0.000,0.000
0.510,-55.797,56.313,108.393,-52.597,-6131.000,-12180.000,0.000,0.000
0.515,-55.658,56.275,108.393,-52.597,-6128.000,-12180.000,0.000,0.000
0.520,-55.549,56.271,108.393,-52.597,-6126.000,-12180.000,0.000,0.000
0.525,-55.388,56.233,108.393,-52.597,-6123.000,-12180.000,0.000,0.000
0.530,-55.235,56.195,108.393,-52.597,-6120.000,-12180.000,0.000,0.000
0.535,-55.104,56.191,108.393,-52.597,-6118.000,-12180.000,0.000,0.000
0.540,-55.009,56.187,108.393,-52.597,-6116.000,-12180.000,0.000,0.000
0.545,-54.856,56.149,108.393,-52.597,-6113.000,-12180.000,0.000,0.000
0.550,-54.695,56.125,108.393,-52.597,-6110.000,-12180.000,0.000,0.000
0.555,-54.542,56.088,108.393,-52.597,-6107.000,-12180.000,0.000,0.000
0.560,-54.389,56.064,108.393,-52.597,-6104.000,-12180.000,0.000,0.000
0.565,-54.119,56.008,108.393,-52.597,-6099.000,-12180.000,0.000,0.000
0.570,-53.914,55.986,108.393,-52.597,-6096.000,-12180.000,0.000,0.000
0.575,-53.674,55.942,108.393,-52.597,-6091.000,-12180.000,0.000,0.000
0.580,-53.535,55.904,108.393,-52.597,-6088.000,-12180.000,0.000,0.000
0.585,-53.316,55.882,108.393,-52.597,-6084.000,-12180.000,0.000,0.000
0.590,-53.112,55.846,108.393,-52.597,-6080.000,-12180.000,0.000,0.000
0.595,-52.915,55.803,108.393,-52.597,-6076.000,-12180.000,0.000,0.000
0.600,-52.754,55.765,108.393,-52.597,-6073.000,-12180.000,0.000,0.000
0.605,-52.579,55.749,108.393,-52.597,-6070.000,-12180.000,0.000,0.000
0.610,-52.383,55.705,108.393,-52.597,-6066.000,-12180.000,0.000,0.000
0.615,-52.222,55.689,108.393,-52.597,-6063.000,-12180.000,0.000,0.000
0.620,-52.003,55.645,108.393,-52.597,-6059.000,-12180.000,0.000,0.000
0.625,-51.842,55.607,108.393,-52.597,-6056.000,-12180.000,0.000,0.000
0.630,-51.580,55.565,108.393,-52.597,-6051.000,-12180.000,0.000,0.000
0.635,-51.376,55.543,108.393,-52.597,-6047.000,-12180.000,0.000,0.000
0.640,-51.048,55.504,108.393,-52.597,-6041.000,-12180.000,0.000,0.000
0.645,-50.734,55.428,108.393,-52.597,-6035.000,-12180.000,0.000,0.000
0.650,-50.420,55.366,108.393,-52.597,-6029.000,-12180.000,0.000,0.000
0.655,-50.114,55.326,108.393,-52.597,-6023.000,-12180.000,0.000,0.000
0.660,-49.800,55.264,108.393,-52.597,-6017.000,-12180.000,0.000,0.000
0.665,-49.538,55.223,108.393,-52.597,-6012.000,-12180.000,0.000,0.000
0.670,-49.268,55.189,108.393,-52.597,-6007.000,-12180.000,0.000,0.000
0.675,-49.050,55.145,108.393,-52.597,-6003.000,-12180.000,0.000,0.000
0.680,-48.801,55.103,108.393,-52.597,-5998.000,-12180.000,0.000,0.000
0.685,-48.517,55.069,108.393,-52.597,-5993.000,-12180.000,0.000,0.000
0.690,-48.203,55.007,108.393,-52.597,-5987.000,-12180.000,0.000,0.000
0.695,-47.941,54.965,108.393,-52.597,-5982.000,-12180.000,0.000,0.000
0.700,-47.613,54.925,108.393,-52.597,-5976.000,-12180.000,0.000,0.000
0.705,-47.409,54.890,108.393,-52.597,-5972.000,-12180.000,0.000,0.000
0.710,-47.081,54.828,108.393,-52.597,-5966.000,-12180.000,0.000,0.000
0.715,-46.789,54.788,108.393,-52.597,-5960.000,-12180.000,0.000,0.000
0.720,-46.461,54.748,108.393,-52.597,-5954.000,-12180.000,0.000,0.000
0.725,-46.177,54.692,108.393,-52.597,-5949.000,-12180.000,0.000,0.000
0.730,-45.995,54.670,108.393,-52.597,-5945.000,-12180.000,0.000,0.000
0.735,-45.732,54.628,108.393,-52.597,-5940.000,-12180.000,0.000,0.000
0.740,-45.448,54.594,108.393,-52.597,-5935.000,-12180.000,0.000,0.000
0.745,-45.134,54.533,108.393,-52.597,-5929.000,-12180.000,0.000,0.000
0.750,-44.872,54.491,108.393,-52.597,-5924.000,-12180.000,0.000,0.000
0.755,-44.610,54.471,108.393,-52.597,-5919.000,-12180.000,0.000,0.000
0.760,-44.326,54.415,108.393,-52.597,-5914.000,-12180.000,0.000,0.000
0.765,-44.034,54.375,108.393,-52.597,-5908.000,-12180.000,0.000,0.000
0.770,-43.641,54.315,108.393,-52.597,-5901.000,-12180.000,0.000,0.000
0.775,-43.269,54.277,108.393,-52.597,-5894.000,-12180.000,0.000,0.000
0.780,-42.963,54.215,108.393,-52.597,-5888.000,-12180.000,0.000,0.000
0.785,-42.715,54.182,108.393,-52.597,-5883.000,-12180.000,0.000,0.000
0.790,-42.278,54.116,108.393,-52.597,-5875.000,-12180.000,0.000,0.000
0.795,-41.841,54.016,108.393,-52.597,-5867.000,-12179.000,0.000,0.000
0.800,-41.469,53.978,108.393,-52.597,-5860.000,-12179.000,0.000,0.000
0.805,-41.098,53.879,108.393,-52.597,-5853.000,-12178.000,0.000,0.000
0.810,-40.683,53.777,108.393,-52.597,-5845.000,-12177.000,0.000,0.000
0.815,-40.246,53.677,108.393,-52.597,-5837.000,-12176.000,0.000,0.000
0.820,-39.874,53.570,108.393,-52.597,-5830.000,-12174.000,0.000,0.000
0.825,-39.394,53.486,108.393,-52.597,-5821.000,-12173.000,0.000,0.000
0.830,-38.935,53.325,108.393,-52.597,-5812.000,-12171.000,0.000,0.000
0.835,-38.498,53.197,108.393,-52.597,-5804.000,-12169.000,0.000,0.000
0.840,-37.973,53.038,108.393,-52.597,-5794.000,-12167.000,0.000,0.000
0.845,-37.449,52.934,108.393,-52.597,-5784.000,-12166.000,0.000,0.000
0.850,-37.012,52.793,108.393,-52.597,-5776.000,-12164.000,0.000,0.000
0.855,-36.517,52.626,108.393,-52.597,-5767.000,-12161.000,0.000,0.000
0.860,-35.927,52.482,108.393,-52.597,-5756.000,-12159.000,0.000,0.000
0.865,-35.411,52.281,108.393,-52.597,-5746.000,-12156.000,0.000,0.000
0.870,-34.807,52.118,108.393,-52.597,-5735.000,-12153.000,0.000,0.000
0.875,-34.283,51.931,108.393,-52.597,-5725.000,-12150.000,0.000,0.000
0.880,-33.810,51.722,108.393,-52.597,-5716.000,-12146.000,0.000,0.000
0.885,-33.228,51.495,108.393,-52.597,-5705.000,-12142.000,0.000,0.000
0.890,-32.610,51.268,108.393,-52.597,-5694.000,-12138.000,0.000,0.000
0.895,-32.028,51.041,108.393,-52.597,-5683.000,-12134.000,0.000,0.000
0.900,-31.359,50.788,108.393,-52.597,-5671.000,-12129.000,0.000,0.000
0.905,-30.784,50.520,108.393,-52.597,-5660.000,-12124.000,0.000,0.000
0.910,-30.079,50.213,108.393,-52.597,-5647.000,-12118.000,0.000,0.000
0.915,-29.461,49.958,108.393,-52.597,-5636.000,-12113.000,0.000,0.000
0.920,-28.865,49.670,108.393,-52.597,-5625.000,-12107.000,0.000,0.000
0.925,-28.146,49.355,108.393,-52.597,-5612.000,-12101.000,0.000,0.000
0.930,-27.471,49.041,108.393,-52.597,-5600.000,-12094.000,0.000,0.000
0.935,-26.708,48.687,108.393,-52.597,-5586.000,-12087.000,0.000,0.000
0.940,-25.997,48.352,108.393,-52.597,-5573.000,-12080.000,0.000,0.000
0.945,-25.343,47.974,108.393,-52.597,-5561.000,-12073.000,0.000,0.000
0.950,-24.654,47.660,108.393,-52.597,-5549.000,-12065.000,0.000,0.000
0.955,-23.921,47.284,108.393,-52.597,-5536.000,-12057.000,0.000,0.000
0.960,-23.210,46.894,108.393,-52.597,-5524.000,-12049.000,0.000,0.000
0.965,-22.419,46.506,108.393,-52.597,-5509.000,-12040.000,0.000,0.000
0.970,-21.694,46.088,108.393,-52.597,-5496.000,-12031.000,0.000,0.000
0.975,-20.999,45.648,108.393,-52.597,-5484.000,-12021.000,0.000,0.000
0.980,-20.252,45.230,108.393,-52.597,-5471.000,-12012.000,0.000,0.000
0.985,-19.557,44.791,108.393,-52.597,-5459.000,-12002.000,0.000,0.000
0.990,-18.774,44.389,108.393,-52.597,-5445.000,-11993.000,0.000,0.000
0.995,-18.021,43.923,108.393,-52.597,-5432.000,-11982.000,0.000,0.000
1.000,-17.202,43.437,108.393,-52.597,-5418.000,-11972.000,0.000,0.000
1.005,-16.436,42.958,108.393,-52.597,-5405.000,-11960.000,0.000,0.000
1.010,-15.603,42.455,108.393,-52.597,-5391.000,-11948.000,0.000,0.000
1.015,-14.822,41.959,108.393,-52.597,-5378.000,-11936.000,0.000,0.000
1.020,-13.998,41.390,108.393,-52.597,-5364.000,-11923.000,0.000,0.000
1.025,-13.217,40.883,108.393,-52.597,-5351.000,-11911.000,0.000,0.000
1.030,-12.379,40.352,108.393,-52.597,-5337.000,-11898.000,0.000,0.000
1.035,-11.526,39.789,108.393,-52.597,-5323.000,-11885.000,0.000,0.000
1.040,-10.630,39.230,108.393,-52.597,-5308.000,-11871.000,0.000,0.000
1.045,-9.764,38.641,108.393,-52.597,-5294.000,-11857.000,0.000,0.000
1.050,-8.819,38.068,108.393,-52.597,-5279.000,-11843.000,0.000,0.000
1.055,-7.974,37.451,108.393,-52.597,-5265.000,-11828.000,0.000,0.000
1.060,-7.015,36.850,108.393,-52.597,-5250.000,-11813.000,0.000,0.000
1.065,-6.142,36.228,108.393,-52.597,-5236.000,-11797.000,0.000,0.000
1.070,-5.111,35.573,108.393,-52.597,-5220.000,-11781.000,0.000,0.000
1.075,-4.160,34.930,108.393,-52.597,-5205.000,-11765.000,0.000,0.000
1.080,-3.158,34.290,108.393,-52.597,-5189.000,-11749.000,0.000,0.000
1.085,-2.179,33.619,108.393,-52.597,-5174.000,-11732.000,0.000,0.000
1.090,-1.185,32.943,108.393,-52.597,-5159.000,-11715.000,0.000,0.000
1.095,-0.120,32.227,108.393,-52.597,-5143.000,-11697.000,0.000,0.000
1.100,0.865,31.523,108.393,-52.597,-5128.000,-11678.000,0.000,0.000
1.105,1.966,30.773,108.393,-52.597,-5111.000,-11660.000,0.000,0.000
1.110,3.001,30.082,108.393,-52.597,-5096.000,-11641.000,0.000,0.000
1.115,4.151,29.368,108.393,-52.597,-5079.000,-11622.000,0.000,0.000
1.120,5.077,28.590,108.393,-52.597,-5066.000,-11602.000,0.000,0.000
1.125,6.132,27.789,108.393,-52.597,-5051.000,-11582.000,0.000,0.000
1.130,7.122,27.007,108.393,-52.597,-5037.000,-11561.000,0.000,0.000
1.135,8.133,26.231,108.393,-52.597,-5023.000,-11540.000,0.000,0.000
1.140,9.158,25.449,108.393,-52.597,-5009.000,-11519.000,0.000,0.000
1.145,10.255,24.662,108.393,-52.597,-4994.000,-11498.000,0.000,0.000
1.150,11.215,23.878,108.393,-52.597,-4981.000,-11477.000,0.000,0.000
1.155,12.282,23.068,108.393,-52.597,-4967.000,-11456.000,0.000,0.000
1.160,13.226,22.277,108.393,-52.597,-4955.000,-11433.000,0.000,0.000
1.165,14.307,21.467,108.393,-52.597,-4941.000,-11411.000,0.000,0.000
1.170,15.250,20.654,108.393,-52.597,-4929.000,-11389.000,0.000,0.000
1.175,16.323,19.858,108.393,-52.597,-4915.000,-11367.000,0.000,0.000
1.180,17.265,19.009,108.393,-52.597,-4904.000,-11344.000,0.000,0.000
1.185,18.366,18.185,108.393,-52.597,-4890.000,-11321.000,0.000,0.000
1.190,19.366,17.352,108.393,-52.597,-4878.000,-11298.000,0.000,0.000
1.195,20.343,16.511,108.393,-52.597,-4866.000,-11275.000,0.000,0.000
1.200,21.472,15.709,108.393,-52.597,-4852.000,-11252.000,0.000,0.000
1.205,22.535,14.862,108.393,-52.597,-4840.000,-11229.000,0.000,0.000
1.210,23.555,14.021,108.393,-52.597,-4828.000,-11205.000,0.000,0.000
1.215,24.544,13.143,108.393,-52.597,-4817.000,-11180.000,0.000,0.000
1.220,25.599,12.296,108.393,-52.597,-4805.000,-11156.000,0.000,0.000
1.225,26.647,11.463,108.393,-52.597,-4793.000,-11132.000,0.000,0.000
1.230,27.744,10.588,108.393,-52.597,-4782.000,-11107.000,0.000,0.000
1.235,28.805,9.748,108.393,-52.597,-4769.000,-11083.000,0.000,0.000
1.240,29.864,8.835,108.393,-52.597,-4759.000,-11057.000,0.000,0.000
1.245,30.967,7.946,108.393,-52.597,-4746.000,-11031.000,0.000,0.000
1.250,31.976,7.103,108.393,-52.597,-4736.000,-11006.000,0.000,0.000
1.255,33.036,6.220,108.393,-52.597,-4725.000,-10981.000,0.000,0.000
1.260,34.123,5.357,108.393,-52.597,-4714.000,-10955.000,0.000,0.000
1.265,35.152,4.464,108.393,-52.597,-4704.000,-10929.000,0.000,0.000
1.270,36.311,3.597,108.393,-52.597,-4692.000,-10903.000,0.000,0.000
1.275,37.354,2.704,108.393,-52.597,-4682.000,-10877.000,0.000,0.000
1.280,38.411,1.825,108.393,-52.597,-4672.000,-10851.000,0.000,0.000
1.285,39.468,0.954,108.393,-52.597,-4662.000,-10825.000,0.000,0.000
1.290,40.474,0.053,108.393,-52.597,-4653.000,-10798.000,0.000,0.000
1.295,41.573,-0.832,108.393,-52.597,-4643.000,-10772.000,0.000,0.000
1.300,42.672,-1.689,108.393,-52.597,-4633.000,-10745.000,0.000,0.000
1.305,43.699,-2.535,108.393,-52.597,-4624.000,-10719.000,0.000,0.000
1.310,44.777,-3.400,108.393,-52.597,-4614.000,-10693.000,0.000,0.000
1.315,45.903,-4.299,108.393,-52.597,-4604.000,-10666.000,0.000,0.000
1.320,46.921,-5.187,108.393,-52.597,-4596.000,-10639.000,0.000,0.000
1.325,47.954,-6.041,108.393,-52.597,-4587.000,-10612.000,0.000,0.000
1.330,49.123,-6.890,108.393,-52.597,-4578.000,-10585.000,0.000,0.000
1.335,50.127,-7.793,108.393,-52.597,-4569.000,-10558.000,0.000,0.000
1.340,51.194,-8.682,108.393,-52.597,-4561.000,-10530.000,0.000,0.000
1.345,52.369,-9.575,108.393,-52.597,-4551.000,-10502.000,0.000,0.000
1.350,53.414,-10.436,108.393,-52.597,-4543.000,-10476.000,0.000,0.000
1.355,54.396,-11.249,108.393,-52.597,-4536.000,-10449.000,0.000,0.000
1.360,55.513,-12.094,108.393,-52.597,-4527.000,-10422.000,0.000,0.000
1.365,56.572,-12.969,108.393,-52.597,-4519.000,-10395.000,0.000,0.000
1.370,57.596,-13.791,108.393,-52.597,-4512.000,-10368.000,0.000,0.000
1.375,58.583,-14.640,108.393,-52.597,-4505.000,-10342.000,0.000,0.000
1.380,59.671,-15.431,108.393,-52.597,-4497.000,-10315.000,0.000,0.000
1.385,60.700,-16.308,108.393,-52.597,-4490.000,-10288.000,0.000,0.000
1.390,61.686,-17.137,108.393,-52.597,-4484.000,-10260.000,0.000,0.000
1.395,62.688,-17.931,108.393,-52.597,-4477.000,-10234.000,0.000,0.000
1.400,63.673,-18.782,108.393,-52.597,-4471.000,-10207.000,0.000,0.000
1.405,64.631,-19.577,108.393,-52.597,-4465.000,-10181.000,0.000,0.000
1.410,65.588,-20.458,108.393,-52.597,-4460.000,-10153.000,0.000,0.000
1.415,66.488,-21.255,108.393,-52.597,-4455.000,-10127.000,0.000,0.000
1.420,67.452,-22.073,108.393,-52.597,-4450.000,-10100.000,0.000,0.000
